Seconds,ECG,pitch,roll,heading,GyrZ,Glide_Controller,Depth,Heart_Rate,Stroke_Rate,Heart_Detected,Stroke_Detected
60763,-30.6961,59.54699,-9.405934,84.82941,-0.06434868,1.47E-08,14.77243,51.26729,52.6885,0,0
60763.1,16.77798,59.54699,-9.405934,84.82941,-0.06434868,1.47E-08,14.77243,51.55755,52.6885,1,0
60763.2,-6.95026,57.95597,-14.71177,81.79165,-0.08457224,1.47E-08,14.52851,52.13804,52.6885,0,0
60763.3,-14.00611,57.95597,-14.71177,81.79165,-0.08457224,1.47E-08,14.52851,52.13804,52.6885,0,0
60763.4,-18.88692,56.4582,-27.77313,68.70674,-0.01352094,1.47E-08,14.28459,52.13804,52.6885,0,0
60763.5,-4.206924,56.4582,-27.77313,68.70674,-0.01352094,1.47E-08,14.28459,52.13804,52.6885,0,0
60763.6,-6.333891,54.54897,-31.69483,68.63533,0.05998836,1.47E-08,14.01357,52.13804,52.6885,0,0
60763.7,-7.203226,54.54897,-31.69483,68.63533,0.05998836,1.47E-08,14.01357,52.13804,52.6885,0,1
60763.8,-13.01216,55.86019,-26.96023,74.44169,0.08339414,1.47E-08,13.82385,52.13804,52.60475,0,0
60763.9,-25.38082,55.86019,-26.96023,74.44169,0.08339414,1.47E-08,13.82385,52.13804,52.43728,0,0
60764,-34.79305,59.35497,-18.56756,78.39682,0.01987043,1.47E-08,13.60703,52.13804,52.43728,0,0
60764.1,-52.9534,59.35497,-18.56756,78.39682,0.01987043,1.47E-08,13.60703,52.13804,52.43728,0,0
60764.2,-13.88052,59.25622,-13.6517,85.47212,-0.07431233,1.47E-08,13.33601,51.0527,52.43728,1,0
60764.3,8.798613,59.25622,-13.6517,85.47212,-0.07431233,1.47E-08,13.33601,48.88202,52.43728,0,0
60764.4,23.64626,57.70634,-20.78107,79.11644,-0.07677032,1.47E-08,13.09209,48.88202,52.43728,0,0
60764.5,22.28309,57.70634,-20.78107,79.11644,-0.07677032,1.47E-08,13.09209,48.88202,52.43728,0,0
60764.6,46.43204,55.46793,-32.76039,67.59711,0.01046642,1.47E-08,12.88882,48.88202,52.43728,0,0
60764.7,46.11094,55.46793,-32.76039,67.59711,0.01046642,1.47E-08,12.88882,48.88202,52.43728,0,0
60764.8,42.73158,53.53949,-33.24374,72.61793,0.09664974,1.47E-08,12.63135,48.88202,52.24582,0,1
60764.9,34.46276,53.53949,-33.24374,72.61793,0.09664974,1.47E-08,12.63135,48.88202,51.8629,0,0
60765,20.45767,57.23726,-25.36188,78.69346,0.08947328,1.47E-08,12.38743,48.88202,51.8629,0,0
60765.1,2.818893,57.23726,-25.36188,78.69346,0.08947328,1.47E-08,12.38743,48.88202,51.8629,0,0
60765.2,-14.69656,59.98315,-14.62389,88.58679,-0.01936964,1.47E-08,12.21126,48.88202,51.8629,0,0
60765.3,-20.62792,59.98315,-14.62389,88.58679,-0.01936964,1.47E-08,12.21126,48.88202,51.8629,0,0
60765.4,-6.48388,58.52929,-12.5422,92.20134,-0.1036436,1.47E-08,11.96734,50.07106,51.8629,1,0
60765.5,27.07028,58.52929,-12.5422,92.20134,-0.1036436,1.47E-08,11.96734,52.44916,51.8629,0,0
60765.6,-9.038082,57.50609,-24.69179,78.06722,-0.06460107,1.47E-08,11.73697,52.44916,51.8629,0,0
60765.7,-23.41909,57.50609,-24.69179,78.06722,-0.06460107,1.47E-08,11.73697,52.44916,51.8629,0,0
60765.8,-10.87303,53.75071,-35.97905,70.12399,0.0381298,1.47E-08,11.54726,52.44916,51.8629,0,0
60765.9,3.028591,53.75071,-35.97905,70.12399,0.0381298,1.47E-08,11.54726,52.44916,51.8629,0,0
60766,4.48409,53.91256,-32.26606,78.30893,0.1001282,1.47E-08,11.24913,52.44916,51.96751,0,1
60766.1,1.502342,53.91256,-32.26606,78.30893,0.1001282,1.47E-08,11.24913,52.44916,52.17674,0,0
60766.2,-12.22159,58.78165,-22.86276,83.03312,0.06279749,1.47E-08,10.99166,52.44916,52.17674,0,0
60766.3,-31.76016,58.78165,-22.86276,83.03312,0.06279749,1.47E-08,10.99166,52.44916,52.17674,0,0
60766.4,-36.81112,60.29038,-14.56896,89.8832,-0.0384081,1.47E-08,10.80194,52.44916,52.17674,0,0
60766.5,-39.23125,60.29038,-14.56896,89.8832,-0.0384081,1.47E-08,10.80194,52.44916,52.17674,0,0
60766.6,17.05885,58.6829,-13.60227,90.67972,-0.08972964,1.47E-08,10.58513,52.30776,52.17674,1,0
60766.7,-17.20739,58.6829,-13.60227,90.67972,-0.08972964,1.47E-08,10.58513,52.02496,52.17674,0,0
60766.8,-20.10363,57.70908,-23.75805,79.39659,-0.03904454,1.47E-08,10.34121,52.02496,52.17674,0,0
60766.9,-20.36855,57.70908,-23.75805,79.39659,-0.03904454,1.47E-08,10.34121,52.02496,52.17674,0,0
60767,2.640929,56.51855,-31.13459,74.10111,0.05939581,1.47E-08,10.07018,52.02496,52.17674,0,0
60767.1,4.517284,56.51855,-31.13459,74.10111,0.05939581,1.47E-08,10.07018,52.02496,52.17674,0,1
60767.2,9.716533,57.18788,-25.43329,83.79118,0.1019827,1.47E-08,9.799159,52.02496,51.76466,0,0
60767.3,14.04253,57.18788,-25.43329,83.79118,0.1019827,1.47E-08,9.799159,52.02496,50.94051,0,0
60767.4,16.91778,60.87742,-14.25588,92.51994,0.04824706,1.47E-08,9.528136,52.02496,50.94051,0,0
60767.5,18.59462,60.87742,-14.25588,92.51994,0.04824706,1.47E-08,9.528136,52.02496,50.94051,0,0
60767.6,12.74451,61.63179,-7.807591,96.40916,-0.04791087,1.47E-08,9.365523,52.02496,50.94051,0,0
60767.7,29.695,61.63179,-7.807591,96.40916,-0.04791087,1.47E-08,9.365523,53.33307,50.94051,1,0
60767.8,16.47814,59.62654,-11.26243,93.23957,-0.0892139,1.47E-08,9.135153,55.94931,50.94051,0,0
60767.9,-4.784804,59.62654,-11.26243,93.23957,-0.0892139,1.47E-08,9.135153,55.94931,50.94051,0,0
60768,-19.0094,58.97916,-24.18098,80.26453,-0.03102315,0.1111111,8.837028,55.94931,50.94051,0,0
60768.1,-3.810789,58.97916,-24.18098,80.26453,-0.03102315,0.1111111,8.837028,55.94931,50.94051,0,0
60768.2,-1.704412,57.52803,-30.47548,77.71016,0.05198891,0.3333333,8.620211,55.94931,50.94051,0,0
60768.3,2.128271,57.52803,-30.47548,77.71016,0.05198891,0.3333333,8.620211,55.94931,50.94051,0,1
60768.4,-1.538407,57.88464,-26.66363,83.58794,0.0634888,0.6666667,8.376289,55.94931,35.47886,0,0
60768.5,-4.159123,57.88464,-26.66363,83.58794,0.0634888,0.6666667,8.376289,55.94931,4.55557,0,0
60768.6,-0.04155307,59.77468,-20.13295,90.16884,0.01703935,0.8888889,8.105267,55.94931,4.55557,0,0
60768.7,-4.287207,59.77468,-20.13295,90.16884,0.01703935,0.8888889,8.105267,55.94931,4.55557,0,0
60768.8,29.34985,59.62929,-17.40313,95.16769,-0.02122411,1,7.874898,55.29394,4.55557,1,0
60768.9,-15.08112,59.62929,-17.40313,95.16769,-0.02122411,1,7.874898,53.98318,4.55557,0,0
60769,-16.37824,58.6637,-21.29737,91.4158,-0.02348458,1,7.658078,53.98318,4.55557,0,0
60769.1,-27.88831,58.6637,-21.29737,91.4158,-0.02348458,1,7.658078,53.98318,4.55557,0,0
60769.2,-7.307812,58.42504,-22.95613,89.44923,-0.007891699,1,7.427709,53.98318,4.55557,0,0
60769.3,-4.815485,58.42504,-22.95613,89.44923,-0.007891699,1,7.427709,53.98318,4.55557,0,0
60769.4,-6.436834,57.86818,-25.88368,89.02625,0.009577595,1,7.170238,53.98318,4.55557,0,0
60769.5,-9.840741,57.86818,-25.88368,89.02625,0.009577595,1,7.170238,53.98318,4.55557,0,0
60769.6,-8.464443,57.89836,-27.43808,88.47693,0.01765385,1,6.95342,53.98318,4.55557,0,0
60769.7,-10.13497,57.89836,-27.43808,88.47693,0.01765385,1,6.95342,53.98318,4.55557,0,0
60769.8,-14.19263,58.47991,-25.09275,90.98184,0.008677795,1,6.736601,53.98318,4.55557,0,0
60769.9,22.6437,58.47991,-25.09275,90.98184,0.008677795,1,6.736601,52.59038,4.55557,1,0
60770,-13.3189,57.83527,-23.99423,94.39864,0.001523285,1,6.49268,49.80476,4.55557,0,0
60770.1,-17.27879,57.83527,-23.99423,94.39864,0.001523285,1,6.49268,49.80476,4.55557,0,0
60770.2,-27.72234,57.16045,-24.59292,94.05806,0.000700297,1,6.289414,49.80476,4.55557,0,0
60770.3,-6.494209,57.16045,-24.59292,94.05806,0.000700297,1,6.289414,49.80476,4.55557,0,0
60770.4,-5.888628,56.65845,-25.29048,93.62958,0.000480833,1,6.072595,49.80476,4.55557,0,0
60770.5,-6.205759,56.65845,-25.29048,93.62958,0.000480833,1,6.072595,49.80476,4.55557,0,0
60770.6,-7.975875,56.08514,-25.55962,94.70626,0.002774227,1,5.855777,49.80476,4.55557,0,0
60770.7,-9.771462,56.08514,-25.55962,94.70626,0.002774227,1,5.855777,49.80476,4.55557,0,0
60770.8,-11.50182,56.00559,-26.05944,93.88777,0.002872985,1,5.638959,49.80476,4.55557,0,0
60770.9,-2.48908,56.00559,-26.05944,93.88777,0.002872985,1,5.638959,49.80476,4.55557,0,0
60771,-1.585229,55.69012,-26.35604,93.9372,0.002192648,1,5.435692,49.80476,4.55557,0,0
60771.1,35.4137,55.69012,-26.35604,93.9372,0.002192648,1,5.435692,50.91017,4.55557,1,0
60771.2,9.504659,55.33077,-26.4604,94.47555,0.002379192,1,5.259527,53.12097,4.55557,0,0
60771.3,-5.621022,55.33077,-26.4604,94.47555,0.002379192,1,5.259527,53.12097,4.55557,0,0
60771.4,-21.06614,55.2183,-26.51533,95.66758,0.002971744,1,5.083362,53.12097,4.55557,0,0
60771.5,-0.6538624,55.2183,-26.51533,95.66758,0.002971744,1,5.083362,53.12097,4.55557,0,0
60771.6,8.668198,55.18264,-26.21872,97.32654,0.002214595,1,4.839441,53.12097,4.55557,0,0
60771.7,13.50461,55.18264,-26.21872,97.32654,0.002214595,1,4.839441,53.12097,4.55557,0,0
60771.8,14.16803,55.27316,-26.17478,96.27183,-0.001165143,1,4.622623,53.12097,4.55557,0,0
60771.9,15.69647,55.27316,-26.17478,96.27183,-0.001165143,1,4.622623,53.12097,4.55557,0,0
60772,14.88713,55.11132,-26.15282,95.84885,-0.001867426,1,4.47356,53.12097,4.55557,0,0
60772.1,21.56754,55.11132,-26.15282,95.84885,-0.001867426,1,4.47356,53.12097,4.55557,0,0
60772.2,21.48777,54.6395,-26.43294,96.41466,0.00043694,1,4.310946,53.12097,4.55557,0,0
60772.3,51.30863,54.6395,-26.43294,96.41466,0.00043694,1,4.310946,50.30452,4.55557,1,0
60772.4,4.940044,54.40633,-26.42745,95.14023,0.000305262,1,4.053475,44.6716,4.55557,0,0
60772.5,-3.09675,54.40633,-26.42745,95.14023,0.000305262,1,4.053475,44.6716,4.55557,0,0
60772.6,11.21729,54.17041,-25.80129,94.54695,-0.001944238,1,3.904413,44.6716,4.55557,0,0
60772.7,25.78819,54.17041,-25.80129,94.54695,-0.001944238,1,3.904413,44.6716,4.55557,0,0
60772.8,17.82263,53.69036,-25.50469,95.11826,-0.003217127,1,3.809554,44.6716,4.55557,0,0
60772.9,19.86853,53.69036,-25.50469,95.11826,-0.003217127,1,3.809554,44.6716,4.55557,0,0
60773,21.90614,53.11705,-26.13634,95.62363,-0.002756253,1,3.619839,44.6716,4.55557,0,0
60773.1,11.52462,53.11705,-26.13634,95.62363,-0.002756253,1,3.619839,44.6716,4.55557,0,0
60773.2,0.665859,52.33799,-26.08141,95.0798,-0.003359778,1,3.430122,44.6716,4.55557,0,0
60773.3,-25.02766,52.33799,-26.08141,95.0798,-0.003359778,1,3.430122,44.6716,4.55557,0,0
60773.4,-26.60086,51.83873,-24.36772,95.40391,-0.002306353,1,3.253958,44.6716,4.55557,0,0
60773.5,-33.30173,51.83873,-24.36772,95.40391,-0.002306353,1,3.253958,44.6716,4.55557,0,0
60773.6,7.503756,51.36417,-25.26851,93.67353,0.001248955,1,3.091344,47.38514,4.55557,1,0
60773.7,-49.13198,51.36417,-25.26851,93.67353,0.001248955,1,3.091344,52.81222,4.55557,0,0
60773.8,-49.94565,49.51254,-25.33991,93.39887,-0.000583565,1,2.996486,52.81222,4.55557,0,0
60773.9,-56.49135,49.51254,-25.33991,93.39887,-0.000583565,1,2.996486,52.81222,4.55557,0,0
60774,-31.57872,47.73498,-23.53285,95.02487,-0.006278642,1,2.847424,52.81222,4.55557,0,0
60774.1,-32.65752,47.73498,-23.53285,95.02487,-0.006278642,1,2.847424,52.81222,4.55557,0,0
60774.2,-24.29384,45.5048,-22.66503,96.50805,-0.004841157,1,2.657707,52.81222,4.55557,0,0
60774.3,-11.54908,45.5048,-22.66503,96.50805,-0.004841157,1,2.657707,52.81222,4.55557,0,0
60774.4,-1.492482,42.86863,-21.92353,98.28235,-0.004007195,1,2.522196,52.81222,4.55557,0,0
60774.5,9.399422,42.86863,-21.92353,98.28235,-0.004007195,1,2.522196,52.81222,4.55557,0,0
60774.6,14.25117,40.9594,-20.73164,98.87563,-0.007628343,1,2.386685,52.81222,4.55557,0,0
60774.7,42.56576,40.9594,-20.73164,98.87563,-0.007628343,1,2.386685,52.54857,4.55557,1,0
60774.8,42.05689,39.44792,-19.49031,99.05141,-0.00551052,1,2.291827,52.02129,4.55557,0,0
60774.9,16.37294,39.44792,-19.49031,99.05141,-0.00551052,1,2.291827,52.02129,4.55557,0,0
60775,8.088276,38.04068,-18.76529,99.61722,-0.002646522,1,2.183418,52.02129,4.55557,0,0
60775.1,20.0101,38.04068,-18.76529,99.61722,-0.002646522,1,2.183418,52.02129,4.55557,0,0
60775.2,21.94212,36.97086,-18.06774,99.82047,-0.004094981,1,2.020804,52.02129,4.55557,0,0
60775.3,20.49024,36.97086,-18.06774,99.82047,-0.004094981,1,2.020804,52.02129,4.55557,0,0
60775.4,17.34986,36.1287,-17.79311,99.70512,-0.004731425,1,1.912395,52.02129,4.55557,0,0
60775.5,5.48895,36.1287,-17.79311,99.70512,-0.004731425,1,1.912395,52.02129,4.55557,0,0
60775.6,-13.32064,35.27833,-17.34821,100.1336,-0.004863103,1,1.817537,52.02129,4.55557,0,0
60775.7,-15.47662,35.27833,-17.34821,100.1336,-0.004863103,1,1.817537,52.02129,4.55557,0,0
60775.8,-24.06521,34.94641,-16.95823,99.02944,-0.00737596,1,1.722679,52.02129,4.55557,0,0
60775.9,15.61978,34.94641,-16.95823,99.02944,-0.00737596,1,1.722679,50.65653,4.55557,1,0
60776,-26.62433,34.20576,-16.70008,97.24963,-0.007803914,1,1.614269,47.92701,4.55557,0,0
60776.1,-17.87637,34.20576,-16.70008,97.24963,-0.007803914,1,1.614269,47.92701,4.55557,0,0
60776.2,-20.13576,33.60775,-15.45327,97.05737,-0.007639316,1,1.546514,47.92701,4.55557,0,0
60776.3,-2.173695,33.60775,-15.45327,97.05737,-0.007639316,1,1.546514,47.92701,4.55557,0,0
60776.4,1.532126,34.49379,-15.01935,94.93698,-0.009735192,1,1.465207,47.92701,4.55557,0,0
60776.5,4.083951,34.49379,-15.01935,94.93698,-0.009735192,1,1.465207,47.92701,4.55557,0,0
60776.6,6.683271,34.80925,-14.77219,92.75616,-0.01088738,1,1.343247,47.92701,4.55557,0,0
60776.7,8.85579,34.80925,-14.77219,92.75616,-0.01088738,1,1.343247,47.92701,4.55557,0,0
60776.8,8.611807,34.24965,-13.92083,93.39338,-0.01269795,1,1.26194,47.92701,4.55557,0,0
60776.9,9.175525,34.24965,-13.92083,93.39338,-0.01269795,1,1.26194,47.92701,4.55557,0,0
60777,9.402582,34.1701,-13.2068,92.08599,-0.01791021,1,1.194184,47.92701,4.55557,0,0
60777.1,27.86996,34.1701,-13.2068,92.08599,-0.01791021,1,1.194184,49.8899,4.55557,1,0
60777.2,23.23809,33.93144,-12.55318,89.18555,-0.02137773,1,1.072224,53.81568,4.55557,0,0
60777.3,-12.23112,33.93144,-12.55318,89.18555,-0.02137773,1,1.072224,53.81568,4.55557,0,0
60777.4,-24.66454,33.51174,-10.91639,87.85069,-0.02464774,1,0.9638146,53.81568,4.55557,0,0
60777.5,-13.52496,33.51174,-10.91639,87.85069,-0.02464774,1,0.9638146,53.81568,4.55557,0,0
60777.6,-6.565891,33.30875,-9.427903,84.9118,-0.03203268,1,0.9096101,53.81568,4.55557,0,0
60777.7,-8.97696,33.30875,-9.427903,84.9118,-0.03203268,1,0.9096101,53.81568,4.55557,0,0
60777.8,-8.002207,33.03992,-7.983354,81.69827,-0.03367866,1,0.8418544,53.81568,4.55557,0,0
60777.9,-4.794169,33.03992,-7.983354,81.69827,-0.03367866,1,0.8418544,53.81568,4.55557,0,0
60778,-3.536568,32.57632,-5.769843,79.07798,-0.03603789,1,0.7876498,53.81568,4.55557,0,0
60778.1,14.91442,32.57632,-5.769843,79.07798,-0.03603789,1,0.7876498,53.81568,4.55557,0,0
60778.2,16.02286,32.1868,-4.363742,76.73237,-0.04333505,1,0.6792407,53.81568,4.55557,0,0
60778.3,53.59103,32.1868,-4.363742,76.73237,-0.04333505,1,0.6792407,54.49964,4.55557,1,0
60778.4,-5.062422,32.54889,-3.386062,73.48586,-0.04194146,1,0.5979338,55.86757,4.55557,0,0
60778.5,-11.50762,32.54889,-3.386062,73.48586,-0.04194146,1,0.5979338,55.86757,4.55557,0,0
60778.6,-0.7061513,32.89453,-1.782228,70.09653,-0.03957125,1,0.5708316,55.86757,4.55557,0,0
60778.7,17.41864,32.89453,-1.782228,70.09653,-0.03957125,1,0.5708316,55.86757,4.55557,0,0
60778.8,23.64023,33.10575,-0.008124258,68.04206,-0.04749389,1,0.516627,55.86757,4.55557,0,0
60778.9,8.163772,33.10575,-0.008124258,68.04206,-0.04749389,1,0.516627,55.86757,4.55557,0,0
60779,-4.554798,33.18805,0.2555197,63.92762,-0.05394611,1,0.4488713,55.86757,4.55557,0,0
60779.1,-24.46685,33.18805,0.2555197,63.92762,-0.05394611,1,0.4488713,55.86757,4.55557,0,0
60779.2,-29.63939,33.03717,-0.1179759,58.742,-0.05704055,1,0.4353201,55.86757,4.55557,0,0
60779.3,6.661355,33.03717,-0.1179759,58.742,-0.05704055,1,0.4353201,57.47657,4.55557,1,0
60779.4,-31.78319,32.97683,-0.2278276,52.66647,-0.05667843,1,0.421769,60.69456,4.55557,0,0
60779.5,-47.02302,32.97683,-0.2278276,52.66647,-0.05667843,1,0.421769,60.69456,4.55557,0,0
60779.6,-48.08265,32.2252,-1.08467,47.47535,-0.05180634,1,0.326911,60.69456,4.55557,0,0
60779.7,-1.479404,32.2252,-1.08467,47.47535,-0.05180634,1,0.326911,60.69456,4.55557,0,0
60779.8,15.72691,30.7439,-1.809691,41.78985,-0.04973241,1,0.2591553,60.69456,4.55557,0,0
60779.9,14.40238,30.7439,-1.809691,41.78985,-0.04973241,1,0.2591553,60.69456,4.55557,0,0
60780,4.509637,29.90724,-2.391905,35.49459,-0.04866802,1,0.1778484,60.69456,4.55557,0,0
60780.1,-7.445942,29.90724,-2.391905,35.49459,-0.04866802,1,0.1778484,60.69456,4.55557,0,0
60780.2,-23.22962,27.34239,-3.248748,31.27029,-0.04749389,1,0.1642973,60.69456,4.55557,0,0
60780.3,30.07106,27.34239,-3.248748,31.27029,-0.04749389,1,0.1642973,64.70104,4.55557,1,0
60780.4,-19.17231,24.12742,-4.52852,22.40969,-0.04763654,1,0.137195,72.71402,4.55557,0,0
60780.5,-8.781318,24.12742,-4.52852,22.40969,-0.04763654,1,0.137195,72.71402,4.55557,0,0
60780.6,-20.14317,24.23714,-6.648656,12.401,-0.04603445,1,0.02878585,72.71402,4.55557,0,0
60780.7,-0.8863366,24.23714,-6.648656,12.401,-0.04603445,1,0.02878585,72.71402,4.55557,0,0
60780.8,-7.374451,26.29177,-6.687104,7.896537,-0.04945808,1,0.001683569,72.71402,4.55557,0,0
60780.9,-16.72901,26.29177,-6.687104,7.896537,-0.04945808,1,0.001683569,72.71402,4.55557,0,0
60781,-0.02048753,26.20947,-2.979611,7.74822,-0.06067267,1,-0.01186757,72.71402,4.55557,0,0
60781.1,25.15372,26.20947,-2.979611,7.74822,-0.06067267,1,-0.01186757,72.71402,4.55557,0,0
60781.2,104.6243,24.92019,-1.760258,4.88624,-0.05983871,0.8888889,-0.052521,74.5557,4.55557,1,0
60781.3,118.3364,24.92019,-1.760258,4.88624,-0.05983871,0.8888889,-0.052521,78.23905,4.55557,0,0
60781.4,114.9157,26.52493,-3.798006,-0.5850305,-0.04025159,0.6666667,-0.09317443,78.23905,4.55557,0,0
60781.5,113.68,26.52493,-3.798006,-0.5850305,-0.04025159,0.6666667,-0.09317443,78.23905,4.55557,0,1
60781.6,97.49827,28.19277,-3.776036,-4.825814,-0.0403284,0.3333333,-0.1067256,78.23905,14.34369,0,0
60781.7,40.99145,28.19277,-3.776036,-4.825814,-0.0403284,0.3333333,-0.1067256,78.23905,33.91994,0,0
60781.8,-28.73348,27.20249,-2.529219,-7.808645,-0.04928251,0.1111111,-0.09317443,78.23905,33.91994,0,0
60781.9,-48.89711,27.20249,-2.529219,-7.808645,-0.04928251,0.1111111,-0.09317443,86.07558,33.91994,1,0
60782,-103.8918,27.8197,-4.748223,-13.79628,-0.049085,1.47E-08,-0.09317443,101.7486,33.91994,0,0
60782.1,-106.7641,27.8197,-4.748223,-13.79628,-0.049085,1.47E-08,-0.09317443,101.7486,33.91994,0,0
60782.2,-101.8965,30.77682,-9.444381,-23.60172,-0.05321091,1.47E-08,-0.1338278,101.7486,33.91994,0,0
60782.3,-80.02586,30.77682,-9.444381,-23.60172,-0.05321091,1.47E-08,-0.1338278,101.7486,33.91994,0,0
60782.4,-61.53166,31.84665,-10.25179,-30.87477,-0.06083727,1.47E-08,-0.1202767,101.7486,33.91994,0,0
60782.5,2.340895,31.84665,-10.25179,-30.87477,-0.06083727,1.47E-08,-0.1202767,99.88157,33.91994,1,0
60782.6,-8.381368,31.19926,-9.806892,-37.39526,-0.05177342,1.47E-08,-0.07962329,96.14745,33.91994,0,0
60782.7,1.661207,31.19926,-9.806892,-37.39526,-0.05177342,1.47E-08,-0.07962329,96.14745,33.91994,0,0
60782.8,10.92344,29.4025,-10.86696,-42.72919,-0.02651318,1.47E-08,-0.09317443,96.14745,33.91994,0,0
60782.9,48.14279,29.4025,-10.86696,-42.72919,-0.02651318,1.47E-08,-0.09317443,96.14745,33.91994,0,0
60783,58.74055,28.47532,-12.317,-47.17872,-0.01385013,1.47E-08,-0.09317443,96.14745,33.91994,0,0
60783.1,116.998,28.47532,-12.317,-47.17872,-0.01385013,1.47E-08,-0.09317443,97.91693,33.91994,1,0
60783.2,31.10807,30.08006,-10.60881,-48.22793,-0.001055411,1.47E-08,-0.07962329,101.4559,30.50005,0,0
60783.3,-17.51302,30.08006,-10.60881,-48.22793,-0.001055411,1.47E-08,-0.07962329,101.4559,23.66025,0,1
60783.4,-69.57024,33.68456,-8.713867,-46.0581,0.004507988,1.47E-08,-0.06607214,101.4559,23.66025,0,0
60783.5,-67.89275,33.68456,-8.713867,-46.0581,0.004507988,1.47E-08,-0.06607214,101.4559,23.66025,0,0
60783.6,-68.12735,37.28083,-8.334879,-45.38243,-0.000243396,1.47E-08,-0.03896986,101.4559,23.66025,0,0
60783.7,7.453366,37.28083,-8.334879,-45.38243,-0.000243396,1.47E-08,-0.03896986,100.9492,23.66025,1,0
60783.8,-27.14477,39.59056,-7.0606,-44.04208,0.005780876,1.47E-08,-0.01186757,99.93575,23.66025,0,0
60783.9,-5.022988,39.59056,-7.0606,-44.04208,0.005780876,1.47E-08,-0.01186757,99.93575,23.66025,0,0
60784,13.75156,41.70279,-7.489021,-42.09198,0.002532817,1.47E-08,-0.052521,99.93575,23.66025,0,0
60784.1,33.2631,41.70279,-7.489021,-42.09198,0.002532817,1.47E-08,-0.052521,99.93575,23.66025,0,0
60784.2,35.33682,42.62449,-9.988146,-42.21832,0.001172143,1.47E-08,-0.06607214,99.93575,23.66025,0,0
60784.3,58.1577,42.62449,-9.988146,-42.21832,0.001172143,1.47E-08,-0.06607214,102.4854,23.66025,1,0
60784.4,-10.98123,41.57935,-11.31186,-43.3774,-0.001318768,1.47E-08,-0.06607214,107.5848,23.66025,0,0
60784.5,-49.34215,41.57935,-11.31186,-43.3774,-0.001318768,1.47E-08,-0.06607214,107.5848,23.66025,0,0
60784.6,-83.94694,38.57834,-14.72275,-47.29408,-0.002865985,1.47E-08,-0.09317443,107.5848,23.66025,0,0
60784.7,-76.94739,38.57834,-14.72275,-47.29408,-0.002865985,1.47E-08,-0.09317443,107.5848,23.66025,0,0
60784.8,-64.1555,35.13569,-14.42615,-48.56851,-0.004084008,1.47E-08,-0.1067256,107.5848,23.66025,0,0
60784.9,-4.088271,35.13569,-14.42615,-48.56851,-0.004084008,1.47E-08,-0.1067256,105.0422,23.66025,1,0
60785,-21.23344,34.99853,-12.43784,-46.98096,0.002675468,1.47E-08,-0.1067256,99.95708,23.66025,0,0
60785.1,3.943638,34.99853,-12.43784,-46.98096,0.002675468,1.47E-08,-0.1067256,99.95708,23.66025,0,0
60785.2,25.05398,36.83918,-15.02484,-45.61864,0.02395245,1.47E-08,-0.09317443,99.95708,23.66025,0,0
60785.3,65.62663,36.83918,-15.02484,-45.61864,0.02395245,1.47E-08,-0.09317443,99.95708,23.66025,0,0
60785.4,29.88095,37.06138,-18.6884,-45.34947,0.01834516,1.47E-08,-0.07962329,99.95708,23.66025,0,0
60785.5,52.35053,37.06138,-18.6884,-45.34947,0.01834516,1.47E-08,-0.07962329,101.7887,23.66025,1,0
60785.6,2.000215,37.62373,-20.18238,-42.00409,0.02698105,1.47E-08,-0.09317443,105.452,23.66025,0,0
60785.7,-3.306261,37.62373,-20.18238,-42.00409,0.02698105,1.47E-08,-0.09317443,105.452,23.66025,0,0
60785.8,-13.0857,37.00926,-17.87549,-33.0501,0.04535014,1.47E-08,-0.06607214,105.452,26.01365,0,1
60785.9,-11.47456,37.00926,-17.87549,-33.0501,0.04535014,1.47E-08,-0.06607214,105.452,30.72044,0,0
60786,0.499183,38.65241,-18.05675,-26.09565,0.03675815,1.47E-08,-0.02541872,108.2942,30.72044,1,0
60786.1,-14.95802,38.65241,-18.05675,-26.09565,0.03675815,1.47E-08,-0.02541872,113.9788,30.72044,0,0
60786.2,-38.25158,40.82224,-21.204,-26.64498,0.02303071,1.47E-08,-0.01186757,113.9788,30.72044,0,0
60786.3,-26.55302,40.82224,-21.204,-26.64498,0.02303071,1.47E-08,-0.01186757,113.9788,30.72044,0,0
60786.4,43.85065,37.5716,-16.73853,-21.97572,-0.002207595,1.47E-08,-0.052521,113.9788,30.72044,0,0
60786.5,72.7359,37.5716,-16.73853,-21.97572,-0.002207595,1.47E-08,-0.052521,113.9788,30.72044,0,0
60786.6,133.0204,34.07683,-12.52023,-18.97641,0.001457446,1.47E-08,-0.1338278,108.9755,30.72044,1,0
60786.7,89.19216,34.07683,-12.52023,-18.97641,0.001457446,1.47E-08,-0.1338278,98.9689,30.72044,0,0
60786.8,85.36752,33.78606,-10.9878,-23.48636,0.002236541,1.47E-08,-0.147379,98.9689,30.72044,0,0
60786.9,76.82319,33.78606,-10.9878,-23.48636,0.002236541,1.47E-08,-0.147379,98.9689,30.72044,0,0
60787,68.69874,37.9145,-9.224678,-24.49712,-0.01511205,1.47E-08,-0.07962329,98.9689,30.72044,0,0
60787.1,24.30976,37.9145,-9.224678,-24.49712,-0.01511205,1.47E-08,-0.07962329,98.9689,30.72044,0,0
60787.2,-12.40364,40.12274,-9.806892,-26.07917,-0.004391256,1.47E-08,-0.03896986,106.0922,30.72044,1,0
60787.3,-57.85705,40.12274,-9.806892,-26.07917,-0.004391256,1.47E-08,-0.03896986,120.3387,30.72044,0,0
60787.4,-78.61816,37.70053,-5.879695,-24.39275,0.03077777,1.47E-08,-0.052521,120.3387,30.72044,0,0
60787.5,-63.38813,37.70053,-5.879695,-24.39275,0.03077777,1.47E-08,-0.052521,120.3387,30.72044,0,0
60787.6,-68.54757,38.63869,-7.236363,-20.21239,0.06716482,1.47E-08,-0.01186757,120.3387,30.72044,0,0
60787.7,-32.23066,38.63869,-7.236363,-20.21239,0.06716482,1.47E-08,-0.01186757,116.8707,30.72044,0,0
60787.8,-52.44402,40.02124,-13.32764,-17.42731,0.07533983,1.47E-08,-0.02541872,109.9346,29.03255,0,0
60787.9,-38.92612,40.02124,-13.32764,-17.42731,0.07533983,1.47E-08,-0.02541872,109.9346,25.65676,0,0
60788,-13.8765,39.91151,-10.5429,-5.452044,0.05869352,1.47E-08,-0.02541872,109.9346,25.65676,0,0
60788.1,14.27795,39.91151,-10.5429,-5.452044,0.05869352,1.47E-08,-0.02541872,109.9346,25.65676,0,0
60788.2,33.75731,41.28857,-8.18658,5.468524,0.03606684,1.47E-08,-0.01186757,109.1822,25.65676,1,0
60788.3,24.56171,41.28857,-8.18658,5.468524,0.03606684,1.47E-08,-0.01186757,107.6774,25.65676,0,0
60788.4,1.151964,40.52598,-9.878294,11.60997,0.02043006,1.47E-08,-0.06607214,107.6774,25.65676,0,0
60788.5,-22.93556,40.52598,-9.878294,11.60997,0.02043006,1.47E-08,-0.06607214,107.6774,25.65676,0,0
60788.6,7.120074,37.44268,-10.23531,13.21949,0.01072978,1.47E-08,-0.1067256,107.6774,25.65676,0,0
60788.7,5.056026,37.44268,-10.23531,13.21949,0.01072978,1.47E-08,-0.1067256,107.6774,25.65676,0,0
60788.8,33.44367,37.76637,-7.950398,10.60471,0.008535143,1.47E-08,-0.07962329,109.3436,25.65676,1,0
60788.9,-37.65509,37.76637,-7.950398,10.60471,0.008535143,1.47E-08,-0.07962329,112.6762,25.65676,0,0
60789,-59.80889,40.66863,-2.298531,15.63102,0.005473628,1.47E-08,0.001683569,112.6762,25.65676,0,0
60789.1,-28.92596,40.66863,-2.298531,15.63102,0.005473628,1.47E-08,0.001683569,112.6762,25.65676,0,0
60789.2,-11.94657,42.83571,3.364321,20.2069,-0.001274875,1.47E-08,0.01523471,112.6762,25.65676,0,0
60789.3,55.45872,42.83571,3.364321,20.2069,-0.001274875,1.47E-08,0.01523471,113.428,25.65676,1,0
60789.4,-26.72345,41.65616,3.199544,15.86174,0.001622043,1.47E-08,0.001683569,114.9315,25.65676,0,0
60789.5,-49.13025,41.65616,3.199544,15.86174,0.001622043,1.47E-08,0.001683569,114.9315,25.65676,0,0
60789.6,-52.42477,39.74966,-0.4255605,12.85694,0.02373299,1.47E-08,0.01523471,114.9315,25.65676,0,0
60789.7,-13.82501,39.74966,-0.4255605,12.85694,0.02373299,1.47E-08,0.01523471,114.9315,25.65676,0,0
60789.8,25.71959,37.00926,-2.952148,13.84572,0.03482687,1.47E-08,0.02878585,95.37217,25.65676,1,0
60789.9,-2.734832,37.00926,-2.952148,13.84572,0.03482687,1.47E-08,0.02878585,56.25349,25.65676,0,0
60790,-10.54465,34.27434,-2.106291,16.37261,0.03149102,1.47E-08,-0.052521,56.25349,25.65676,0,0
60790.1,-27.28357,34.27434,-2.106291,16.37261,0.03149102,1.47E-08,-0.052521,56.25349,25.65676,0,1
60790.2,3.38691,35.20701,1.579232,22.86013,0.03639603,1.47E-08,-0.052521,56.25349,24.62133,0,0
60790.3,-6.787939,35.20701,1.579232,22.86013,0.03639603,1.47E-08,-0.052521,56.25349,22.55047,0,0
60790.4,31.90553,35.63768,1.804428,25.04644,0.03675815,1.47E-08,0.01523471,56.25349,22.55047,0,0
60790.5,1.805413,35.63768,1.804428,25.04644,0.03675815,1.47E-08,0.01523471,56.25349,22.55047,0,0
60790.6,16.20145,36.70751,-1.787721,21.15723,0.009753166,1.47E-08,-0.052521,56.25349,22.55047,0,0
60790.7,60.10796,36.70751,-1.787721,21.15723,0.009753166,1.47E-08,-0.052521,56.25349,22.55047,0,0
60790.8,30.62421,36.59779,-3.495914,19.91575,-0.01996219,1.47E-08,-0.09317443,56.25349,22.55047,0,0
60790.9,22.68569,36.59779,-3.495914,19.91575,-0.01996219,1.47E-08,-0.09317443,76.62748,22.55047,1,0
60791,-42.24313,34.85588,-5.500707,14.5928,-0.0131698,1.47E-08,-0.09317443,117.3755,22.55047,0,0
60791.1,-64.50308,34.85588,-5.500707,14.5928,-0.0131698,1.47E-08,-0.09317443,117.3755,22.55047,0,0
60791.2,-60.61145,36.50726,-2.770893,15.31791,0.008710714,1.47E-08,-0.09317443,117.3755,22.55047,0,0
60791.3,-32.81438,36.50726,-2.770893,15.31791,0.008710714,1.47E-08,-0.09317443,117.3755,22.55047,0,0
60791.4,32.94209,39.22847,5.649235,26.71639,0.02644336,1.47E-08,-0.07962329,114.6804,22.55047,1,0
60791.5,16.85213,39.22847,5.649235,26.71639,0.02644336,1.47E-08,-0.07962329,109.2902,22.55047,0,0
60791.6,25.18298,40.83047,4.578182,27.05697,0.02741998,1.47E-08,-0.03896986,109.2902,22.55047,0,0
60791.7,31.7922,40.83047,4.578182,27.05697,0.02741998,1.47E-08,-0.03896986,109.2902,22.55047,0,0
60791.8,73.37177,42.70953,-1.178044,20.89355,0.01157471,1.47E-08,-0.052521,109.2902,22.55047,0,0
60791.9,94.02045,42.70953,-1.178044,20.89355,0.01157471,1.47E-08,-0.052521,109.2902,22.55047,0,0
60792,86.85343,40.91276,1.474873,23.34903,0.001150197,1.47E-08,-0.052521,111.7803,22.55047,1,0
60792.1,56.88946,40.91276,1.474873,23.34903,0.001150197,1.47E-08,-0.052521,116.7603,22.55047,0,0
60792.2,19.51469,36.26038,5.945835,28.21604,0.005802823,1.47E-08,-0.02541872,116.7603,22.55047,0,0
60792.3,15.34036,36.26038,5.945835,28.21604,0.005802823,1.47E-08,-0.02541872,116.7603,22.55047,0,0
60792.4,-27.08087,35.83245,11.01,36.73057,0.0119478,1.47E-08,-0.07962329,116.7603,22.55047,0,0
60792.5,16.2937,35.83245,11.01,36.73057,0.0119478,1.47E-08,-0.07962329,117.4327,22.55047,1,0
60792.6,-65.94945,38.66887,12.74565,40.06497,0.02636655,1.47E-08,-0.09317443,118.7776,22.55047,0,0
60792.7,-69.14992,38.66887,12.74565,40.06497,0.02636655,1.47E-08,-0.09317443,118.7776,22.55047,0,1
60792.8,-34.89921,39.43695,9.592909,39.37831,0.04338595,1.47E-08,-0.02541872,118.7776,25.02303,0,0
60792.9,-40.02105,39.43695,9.592909,39.37831,0.04338595,1.47E-08,-0.02541872,118.7776,29.96817,0,0
60793,5.716457,40.41899,7.022381,41.15263,0.03006451,1.47E-08,-0.052521,115.0642,29.96817,1,0
60793.1,-31.85168,40.41899,7.022381,41.15263,0.03006451,1.47E-08,-0.052521,107.6374,29.96817,0,0
60793.2,-44.60211,42.84668,8.098927,46.60742,0.006340508,1.47E-08,-0.052521,107.6374,29.96817,0,0
60793.3,-25.09615,42.84668,8.098927,46.60742,0.006340508,1.47E-08,-0.052521,107.6374,29.96817,0,0
60793.4,-30.56648,43.73272,7.395876,48.35427,-0.005444681,1.47E-08,0.001683569,107.6374,29.96817,0,0
60793.5,-3.242913,43.73272,7.395876,48.35427,-0.005444681,1.47E-08,0.001683569,91.52643,29.96817,1,0
60793.6,-27.06708,42.00728,-0.7935636,41.94366,0.00091976,1.47E-08,-0.07962329,59.30442,29.96817,0,0
60793.7,-31.55997,42.00728,-0.7935636,41.94366,0.00091976,1.47E-08,-0.07962329,59.30442,29.96817,0,0
60793.8,-20.48478,38.50702,-5.253541,40.94938,0.01040058,1.47E-08,-0.1202767,59.30442,29.96817,0,0
60793.9,-1.364296,38.50702,-5.253541,40.94938,0.01040058,1.47E-08,-0.1202767,59.30442,29.96817,0,0
60794,23.45629,37.11898,-5.879695,42.16339,0.02160419,1.47E-08,-0.09317443,59.30442,29.96817,0,0
60794.1,-7.674646,37.11898,-5.879695,42.16339,0.02160419,1.47E-08,-0.09317443,59.30442,29.96817,0,0
60794.2,-1.839596,37.23145,-8.560075,42.25128,0.02439138,1.47E-08,-0.07962329,59.30442,29.96817,0,0
60794.3,-3.678579,37.23145,-8.560075,42.25128,0.02439138,1.47E-08,-0.07962329,59.30442,29.96817,0,0
60794.4,-4.961092,37.57709,-6.851882,49.85393,0.01928885,1.47E-08,-0.09317443,59.30442,29.96817,0,0
60794.5,-25.08899,37.57709,-6.851882,49.85393,0.01928885,1.47E-08,-0.09317443,59.30442,29.96817,0,0
60794.6,-29.11432,38.64966,-4.176994,56.26454,0.02652018,1.47E-08,-0.07962329,78.91221,29.96817,1,0
60794.7,-62.73314,38.64966,-4.176994,56.26454,0.02652018,1.47E-08,-0.07962329,118.1278,29.96817,0,1
60794.8,-77.61845,39.69755,-7.329736,54.56164,0.03866748,1.47E-08,-0.03896986,118.1278,30.08561,0,0
60794.9,-26.73576,39.69755,-7.329736,54.56164,0.03866748,1.47E-08,-0.03896986,118.1278,30.32049,0,0
60795,17.04954,41.66164,-10.21884,51.89742,0.03423432,1.47E-08,-0.052521,118.1278,30.32049,0,0
60795.1,102.2449,41.66164,-10.21884,51.89742,0.03423432,1.47E-08,-0.052521,117.6426,30.32049,1,0
60795.2,56.00301,43.2609,-5.484229,59.51105,0.00485913,1.47E-08,-0.03896986,116.6721,30.32049,0,0
60795.3,115.5679,43.2609,-5.484229,59.51105,0.00485913,1.47E-08,-0.03896986,116.6721,30.32049,0,0
60795.4,138.791,41.87835,-3.863917,59.28033,-0.01589114,1.47E-08,-0.03896986,116.6721,30.32049,0,0
60795.5,116.1081,41.87835,-3.863917,59.28033,-0.01589114,1.47E-08,-0.03896986,116.6721,30.32049,0,0
60795.6,97.37585,42.16364,-4.956941,51.23274,-0.01163355,1.47E-08,-0.02541872,97.92747,30.32049,1,0
60795.7,40.38116,42.16364,-4.956941,51.23274,-0.01163355,1.47E-08,-0.02541872,60.43821,30.32049,0,0
60795.8,8.969208,43.47487,-0.2607831,55.56141,-0.001230982,1.47E-08,-0.052521,60.43821,30.32049,0,0
60795.9,-0.09176912,43.47487,-0.2607831,55.56141,-0.001230982,1.47E-08,-0.052521,60.43821,30.32049,0,0
60796,-36.14507,42.06489,-2.276561,55.85255,0.003410671,1.47E-08,-0.02541872,60.43821,30.32049,0,0
60796.1,-14.70123,42.06489,-2.276561,55.85255,0.003410671,1.47E-08,-0.02541872,60.43821,30.32049,0,0
60796.2,-59.51491,41.97711,-8.993989,50.4417,0.0096983,1.47E-08,0.02878585,60.43821,30.32049,0,0
60796.3,-95.07518,41.97711,-8.993989,50.4417,0.0096983,1.47E-08,0.02878585,60.43821,30.32049,0,0
60796.4,-71.82868,43.37337,-11.40523,52.44674,0.01474596,1.47E-08,-0.03896986,60.43821,30.32049,0,0
60796.5,-82.86017,43.37337,-11.40523,52.44674,0.01474596,1.47E-08,-0.03896986,60.43821,30.32049,0,0
60796.6,-37.49487,44.60504,-11.38326,57.34122,0.02236134,1.47E-08,-0.03896986,77.66411,30.32049,1,0
60796.7,-47.39931,44.60504,-11.38326,57.34122,0.02236134,1.47E-08,-0.03896986,112.1159,30.32049,0,1
60796.8,-19.0585,46.85169,-10.93287,59.65937,0.03447573,1.47E-08,-0.01186757,112.1159,34.07211,0,0
60796.9,17.34119,46.85169,-10.93287,59.65937,0.03447573,1.47E-08,-0.01186757,112.1159,41.57535,0,0
60797,35.72261,47.16441,-12.82781,61.4282,0.02599346,1.47E-08,0.001683569,112.1159,41.57535,0,0
60797.1,104.7201,47.16441,-12.82781,61.4282,0.02599346,1.47E-08,0.001683569,113.6344,41.57535,1,0
60797.2,81.26944,46.44296,-15.98605,60.29109,0.007701182,1.47E-08,-0.03896986,116.6715,41.57535,0,0
60797.3,78.76594,46.44296,-15.98605,60.29109,0.007701182,1.47E-08,-0.03896986,116.6715,41.57535,0,0
60797.4,70.54857,47.67189,-13.2782,60.32406,-0.004566827,1.47E-08,-0.052521,116.6715,41.57535,0,0
60797.5,43.56146,47.67189,-13.2782,60.32406,-0.004566827,1.47E-08,-0.052521,116.6715,41.57535,0,0
60797.6,50.09006,45.15916,-6.588238,71.28308,-0.01416836,1.47E-08,-0.01186757,119.2522,41.57535,1,0
60797.7,-44.93116,45.15916,-6.588238,71.28308,-0.01416836,1.47E-08,-0.01186757,124.4137,41.57535,0,0
60797.8,-82.98615,42.11426,-7.57141,77.37508,0.001600097,1.47E-08,0.01523471,124.4137,41.57535,0,0
60797.9,-90.75481,42.11426,-7.57141,77.37508,0.001600097,1.47E-08,0.01523471,124.4137,41.57535,0,0
60798,-70.57443,42.11975,-16.37602,68.92647,0.02400732,1.47E-08,0.01523471,124.4137,41.57535,0,0
60798.1,-27.20139,42.11975,-16.37602,68.92647,0.02400732,1.47E-08,0.01523471,121.0581,41.57535,1,0
60798.2,-44.45256,39.73321,-18.7598,69.86032,0.02181268,1.47E-08,-0.02541872,114.3467,36.92615,0,1
60798.3,-22.73313,39.73321,-18.7598,69.86032,0.02181268,1.47E-08,-0.02541872,114.3467,27.62776,0,0
60798.4,-10.54276,40.19954,-14.77219,75.71611,0.01835613,1.47E-08,-0.06607214,114.3467,27.62776,0,0
60798.5,-7.257762,40.19954,-14.77219,75.71611,0.01835613,1.47E-08,-0.06607214,114.3467,27.62776,0,0
60798.6,22.26893,42.85217,-10.56487,75.71063,0.008414438,1.47E-08,-0.07962329,95.83707,27.62776,1,0
60798.7,1.247586,42.85217,-10.56487,75.71063,0.008414438,1.47E-08,-0.07962329,58.81776,27.62776,0,0
60798.8,3.116839,43.18684,-8.389805,75.9743,-0.005181325,1.47E-08,-0.09317443,58.81776,27.62776,0,0
60798.9,8.536761,43.18684,-8.389805,75.9743,-0.005181325,1.47E-08,-0.09317443,58.81776,27.62776,0,0
60799,10.0252,42.50104,-10.04307,77.35859,0.000886841,1.47E-08,-0.052521,58.81776,27.62776,0,0
60799.1,11.76267,42.50104,-10.04307,77.35859,0.000886841,1.47E-08,-0.052521,58.81776,27.62776,0,0
60799.2,-19.32721,42.17187,-13.41003,75.11736,0.00551752,1.47E-08,-0.02541872,58.81776,27.62776,0,0
60799.3,-38.22112,42.17187,-13.41003,75.11736,0.00551752,1.47E-08,-0.02541872,58.81776,27.62776,0,0
60799.4,-57.76751,40.95665,-13.99224,76.03472,0.005879635,1.47E-08,-0.03896986,58.81776,27.62776,0,0
60799.5,-63.20449,40.95665,-13.99224,76.03472,0.005879635,1.47E-08,-0.03896986,58.81776,27.62776,0,0
60799.6,-62.91577,38.85814,-11.41622,85.35126,0.01359378,1.47E-08,-0.06607214,79.57938,27.62776,1,0
60799.7,-50.9912,38.85814,-11.41622,85.35126,0.01359378,1.47E-08,-0.06607214,121.1026,27.62776,0,0
60799.8,-30.81761,39.92248,-8.625986,87.71886,0.01348405,1.47E-08,-0.052521,121.1026,27.62776,0,0
60799.9,4.725636,39.92248,-8.625986,87.71886,0.01348405,1.47E-08,-0.052521,121.1026,27.62776,0,0
60800,42.20405,41.7796,-7.346214,86.08187,0.01805986,1.47E-08,-0.07962329,121.1026,27.62776,0,0
60800.1,62.68527,41.7796,-7.346214,86.08187,0.01805986,1.47E-08,-0.07962329,119.6227,27.62776,1,0
60800.2,84.59326,42.16913,-6.637671,86.36752,0.02109943,1.47E-08,-0.09317443,116.663,27.62776,0,0
60800.3,15.50005,42.16913,-6.637671,86.36752,0.02109943,1.47E-08,-0.09317443,116.663,27.62776,0,1
60800.4,18.15543,42.619,-2.836804,86.47189,0.01990335,1.47E-08,-0.052521,116.663,25.08711,0,0
60800.5,67.46539,42.619,-2.836804,86.47189,0.01990335,1.47E-08,-0.052521,116.663,20.0058,0,0
60800.6,100.0533,42.57237,1.370514,87.23545,0.0204959,1.47E-08,-0.02541872,116.663,20.0058,0,0
60800.7,83.96346,42.57237,1.370514,87.23545,0.0204959,1.47E-08,-0.02541872,117.4299,20.0058,1,0
60800.8,-11.36117,43.11551,3.166588,87.79027,0.007317121,1.47E-08,0.001683569,118.9636,20.0058,0,0
60800.9,-32.62388,43.11551,3.166588,87.79027,0.007317121,1.47E-08,0.001683569,118.9636,20.0058,0,0
60801,-15.536,39.99929,7.264055,96.23338,-0.006607838,1.47E-08,-0.01186757,118.9636,20.0058,0,0
60801.1,-22.82846,39.99929,7.264055,96.23338,-0.006607838,1.47E-08,-0.01186757,118.9636,20.0058,0,0
60801.2,-20.14451,36.01624,6.143568,101.3476,-0.004720452,1.47E-08,-0.01186757,98.8386,20.0058,1,0
60801.3,-64.2944,36.01624,6.143568,101.3476,-0.004720452,1.47E-08,-0.01186757,58.58868,20.0058,0,0
60801.4,-87.01012,37.05589,-1.189029,95.34897,0.002159729,1.47E-08,-0.01186757,58.58868,20.0058,0,0
60801.5,-71.89478,37.05589,-1.189029,95.34897,0.002159729,1.47E-08,-0.01186757,58.58868,20.0058,0,0
60801.6,-62.60313,36.70477,-3.715617,93.70649,0.003004663,1.47E-08,-0.03896986,58.58868,20.0058,0,0
60801.7,16.7973,36.70477,-3.715617,93.70649,0.003004663,1.47E-08,-0.03896986,58.58868,20.0058,0,0
60801.8,30.37851,36.4716,-4.012216,91.67948,-0.003326859,1.47E-08,-0.052521,58.58868,20.0058,0,0
60801.9,28.27358,36.4716,-4.012216,91.67948,-0.003326859,1.47E-08,-0.052521,58.58868,20.0058,0,0
60802,57.42633,36.48532,-5.193122,86.02145,-0.01235778,1.47E-08,-0.07962329,58.58868,20.0058,0,0
60802.1,48.95479,36.48532,-5.193122,86.02145,-0.01235778,1.47E-08,-0.07962329,58.58868,20.0058,0,0
60802.2,65.08454,35.40177,-5.561125,82.52774,-0.01591309,1.47E-08,-0.1067256,78.95651,20.0058,1,0
60802.3,24.48925,35.40177,-5.561125,82.52774,-0.01591309,1.47E-08,-0.1067256,119.6922,20.0058,0,0
60802.4,-4.844663,35.84891,-3.776036,78.8198,-0.007738075,1.47E-08,-0.1067256,119.6922,20.0058,0,0
60802.5,8.443037,35.84891,-3.776036,78.8198,-0.007738075,1.47E-08,-0.1067256,119.6922,20.0058,0,0
60802.6,-3.681569,35.95314,0.7937928,81.07203,0.004968862,1.47E-08,-0.09317443,119.6922,20.0058,0,0
60802.7,52.58133,35.95314,0.7937928,81.07203,0.004968862,1.47E-08,-0.09317443,119.5257,20.0058,1,0
60802.8,15.69432,36.66088,4.731974,84.37347,0.01530559,1.47E-08,-0.052521,119.1929,20.0058,0,0
60802.9,11.04239,36.66088,4.731974,84.37347,0.01530559,1.47E-08,-0.052521,119.1929,20.0058,0,0
60803,29.94482,37.05315,3.83119,84.96675,0.01160763,1.47E-08,-0.02541872,119.1929,20.0058,0,0
60803.1,15.95447,37.05315,3.83119,84.96675,0.01160763,1.47E-08,-0.02541872,119.1929,20.0058,0,0
60803.2,41.48667,36.00801,2.150461,86.04891,0.01154179,1.47E-08,-0.03896986,119.8687,20.0058,1,0
60803.3,-47.29756,36.00801,2.150461,86.04891,0.01154179,1.47E-08,-0.03896986,121.2205,20.0058,0,1
60803.4,-57.71706,35.77484,3.93555,87.88365,0.02043006,1.47E-08,-0.07962329,121.2205,23.53647,0,0
60803.5,-39.53197,35.77484,3.93555,87.88365,0.02043006,1.47E-08,-0.07962329,121.2205,30.59781,0,0
60803.6,-40.87693,37.14093,6.462138,88.27916,0.0172259,1.47E-08,-0.06607214,121.2205,30.59781,0,0
60803.7,-1.887645,37.14093,6.462138,88.27916,0.0172259,1.47E-08,-0.06607214,119.3802,30.59781,1,0
60803.8,21.8656,41.36813,11.5263,85.60396,-0.002273434,1.47E-08,-0.03896986,115.6997,30.59781,0,0
60803.9,42.16201,41.36813,11.5263,85.60396,-0.002273434,1.47E-08,-0.03896986,115.6997,30.59781,0,0
60804,36.08893,45.07413,13.27294,81.12697,-0.02643636,1.47E-08,-0.052521,115.6997,30.59781,0,0
60804.1,-4.006763,45.07413,13.27294,81.12697,-0.02643636,1.47E-08,-0.052521,115.6997,30.59781,0,0
60804.2,7.42187,44.87936,8.785499,74.98002,-0.03505031,1.47E-08,-0.01186757,115.169,30.59781,1,0
60804.3,-47.97418,44.87936,8.785499,74.98002,-0.03505031,1.47E-08,-0.01186757,114.1074,30.59781,0,0
60804.4,-50.71375,45.09058,6.072164,71.46984,-0.0352149,1.47E-08,-0.01186757,114.1074,30.59781,0,0
60804.5,-31.7194,45.09058,6.072164,71.46984,-0.0352149,1.47E-08,-0.01186757,114.1074,30.59781,0,0
60804.6,-48.78113,47.37837,4.97914,71.36547,-0.02648026,1.47E-08,-0.03896986,114.1074,30.59781,0,0
60804.7,-43.15791,47.37837,4.97914,71.36547,-0.02648026,1.47E-08,-0.03896986,117.5602,30.59781,1,0
60804.8,-83.46381,47.95718,2.287775,74.40873,0.000239423,1.47E-08,-0.03896986,124.4657,30.59781,0,0
60804.9,-96.16269,47.95718,2.287775,74.40873,0.000239423,1.47E-08,-0.03896986,124.4657,30.59781,0,0
60805,-87.3073,47.59234,2.375656,81.06653,0.009281319,1.47E-08,-0.02541872,124.4657,30.59781,0,0
60805.1,-80.34702,47.59234,2.375656,81.06653,0.009281319,1.47E-08,-0.02541872,124.4657,30.59781,0,0
60805.2,-32.38386,47.3482,0.6070449,82.69254,0.006922087,1.47E-08,-0.01186757,121.7262,30.59781,1,0
60805.3,-49.20132,47.3482,0.6070449,82.69254,0.006922087,1.47E-08,-0.01186757,116.2471,30.59781,0,1
60805.4,8.266626,46.3442,-3.276211,79.11644,0.01736855,1.47E-08,-0.03896986,116.2471,26.54293,0,0
60805.5,96.02518,46.3442,-3.276211,79.11644,0.01736855,1.47E-08,-0.03896986,116.2471,18.43315,0,0
60805.6,136.7921,41.01975,2.133983,85.95003,0.01518489,1.47E-08,-0.052521,116.2471,18.43315,0,0
60805.7,194.317,41.01975,2.133983,85.95003,0.01518489,1.47E-08,-0.052521,117.3889,18.43315,1,0
60805.8,133.1593,36.28232,2.573389,83.95049,-0.01246751,1.47E-08,-0.07962329,119.6724,18.43315,0,0
60805.9,126.3609,36.28232,2.573389,83.95049,-0.01246751,1.47E-08,-0.07962329,119.6724,18.43315,0,0
60806,127.5551,33.87932,0.2939678,75.83148,-0.006991899,1.47E-08,-0.09317443,119.6724,18.43315,0,0
60806.1,110.3287,33.87932,0.2939678,75.83148,-0.006991899,1.47E-08,-0.09317443,119.6724,18.43315,0,0
60806.2,98.09946,31.81647,6.819155,83.19791,0.01198072,1.47E-08,-0.02541872,116.7689,18.43315,1,0
60806.3,43.4496,31.81647,6.819155,83.19791,0.01198072,1.47E-08,-0.02541872,110.9621,18.43315,0,0
60806.4,0.7121929,33.26485,7.57164,86.0599,0.00344359,1.47E-08,-0.052521,110.9621,18.43315,0,0
60806.5,-35.54438,33.26485,7.57164,86.0599,0.00344359,1.47E-08,-0.052521,110.9621,18.43315,0,0
60806.6,-37.95669,35.68431,2.474523,83.44511,-0.002317326,1.47E-08,-0.03896986,110.9621,18.43315,0,0
60806.7,-21.83439,35.68431,2.474523,83.44511,-0.002317326,1.47E-08,-0.03896986,110.9621,18.43315,0,0
60806.8,-62.75657,38.01051,-1.518585,84.4229,0.01122357,1.47E-08,0.01523471,116.6428,18.43315,1,0
60806.9,-40.74441,38.01051,-1.518585,84.4229,0.01122357,1.47E-08,0.01523471,128.0042,18.43315,0,0
60807,-4.130042,39.2559,-6.264176,87.77378,0.0247535,1.47E-08,-0.02541872,128.0042,18.43315,0,0
60807.1,11.94626,39.2559,-6.264176,87.77378,0.0247535,1.47E-08,-0.02541872,128.0042,18.43315,0,0
60807.2,16.84122,41.92224,-10.098,87.52659,0.02469863,1.47E-08,-0.06607214,124.3223,18.43315,1,0
60807.3,-13.48921,41.92224,-10.098,87.52659,0.02469863,1.47E-08,-0.06607214,116.9585,18.43315,0,0
60807.4,-53.27137,43.01676,-12.66853,88.34509,0.02115429,1.47E-08,-0.06607214,116.9585,18.43315,0,0
60807.5,-75.43752,43.01676,-12.66853,88.34509,0.02115429,1.47E-08,-0.06607214,116.9585,18.43315,0,0
60807.6,-100.4412,42.86315,-10.51543,90.18532,0.001007545,1.47E-08,-0.07962329,116.9585,18.43315,0,0
60807.7,-127.1376,42.86315,-10.51543,90.18532,0.001007545,1.47E-08,-0.07962329,116.5611,18.43315,1,0
60807.8,-110.0808,41.84818,-8.461208,90.48745,-0.007803914,1.47E-08,-0.09317443,115.7663,18.43315,0,0
60807.9,-108.1274,41.84818,-8.461208,90.48745,-0.007803914,1.47E-08,-0.09317443,115.7663,18.43315,0,0
60808,-84.19566,40.25166,-9.642113,90.05898,0.005418762,1.47E-08,-0.06607214,115.7663,18.43315,0,0
60808.1,-44.9806,40.25166,-9.642113,90.05898,0.005418762,1.47E-08,-0.06607214,115.7663,18.43315,0,0
60808.2,-13.35145,41.28857,-6.906808,91.69597,0.01743439,1.47E-08,-0.01186757,115.7663,18.43315,0,0
60808.3,59.92346,41.28857,-6.906808,91.69597,0.01743439,1.47E-08,-0.01186757,118.6821,18.43315,1,0
60808.4,1.322003,43.49407,-1.370285,96.33226,0.0266738,1.47E-08,-0.01186757,124.5137,18.43315,0,0
60808.5,16.05298,43.49407,-1.370285,96.33226,0.0266738,1.47E-08,-0.01186757,124.5137,18.43315,0,1
60808.6,26.46266,44.69283,0.2719974,99.74356,0.03258834,1.47E-08,-0.03896986,124.5137,18.95152,0,0
60808.7,24.15011,44.69283,0.2719974,99.74356,0.03258834,1.47E-08,-0.03896986,122.0216,19.98826,1,0
60808.8,70.96263,46.13298,-1.628436,100.5346,0.02206507,1.47E-08,0.001683569,117.0375,19.98826,0,0
60808.9,63.03264,46.13298,-1.628436,100.5346,0.02206507,1.47E-08,0.001683569,117.0375,19.98826,0,0
60809,42.3664,46.5856,-0.1344536,103.3087,0.004200739,1.47E-08,0.001683569,117.0375,19.98826,0,0
60809.1,41.92264,46.5856,-0.1344536,103.3087,0.004200739,1.47E-08,0.001683569,117.0375,19.98826,0,0
60809.2,8.686231,44.22924,2.760137,107.0166,-0.01895266,1.47E-08,-0.01186757,117.0375,19.98826,0,0
60809.3,33.17605,44.22924,2.760137,107.0166,-0.01895266,1.47E-08,-0.01186757,116.0892,19.98826,1,0
60809.4,19.76735,41.6397,-0.08502046,105.7971,-0.02640344,1.47E-08,0.01523471,114.1926,19.98826,0,0
60809.5,21.36932,41.6397,-0.08502046,105.7971,-0.02640344,1.47E-08,0.01523471,114.1926,19.98826,0,0
60809.6,19.61588,40.76189,-5.649006,99.92484,-0.01943548,1.47E-08,-0.06607214,114.1926,19.98826,0,0
60809.7,0.2530347,40.76189,-5.649006,99.92484,-0.01943548,1.47E-08,-0.06607214,114.1926,19.98826,0,0
60809.8,16.13813,41.40927,-7.027644,96.03562,-0.01084348,1.47E-08,-0.09317443,116.1997,19.98826,1,0
60809.9,-40.36976,41.40927,-7.027644,96.03562,-0.01084348,1.47E-08,-0.09317443,120.2137,19.98826,0,0
60810,-54.98861,43.26639,-8.417268,91.9102,0.003882517,1.47E-08,-0.07962329,120.2137,19.98826,0,0
60810.1,-41.18426,43.26639,-8.417268,91.9102,0.003882517,1.47E-08,-0.07962329,120.2137,19.98826,0,0
60810.2,-61.12659,46.11104,-8.620494,86.61472,0.005298057,1.47E-08,-0.052521,120.2137,19.98826,0,0
60810.3,-37.70532,46.11104,-8.620494,86.61472,0.005298057,1.47E-08,-0.052521,119.7141,19.98826,1,0
60810.4,-76.59824,47.79259,-4.385712,87.29588,0.000491806,1.47E-08,-0.02541872,118.715,19.98826,0,0
60810.5,-103.9174,47.79259,-4.385712,87.29588,0.000491806,1.47E-08,-0.02541872,118.715,19.98826,0,0
60810.6,-46.72861,47.08211,-2.864267,89.17457,-0.00160407,1.47E-08,-0.02541872,118.715,19.98826,0,0
60810.7,12.30815,47.08211,-2.864267,89.17457,-0.00160407,1.47E-08,-0.02541872,118.715,19.98826,0,0
60810.8,112.373,46.12749,-5.165659,88.13634,-0.01129338,1.47E-08,-0.03896986,119.191,19.98826,1,0
60810.9,39.21272,46.12749,-5.165659,88.13634,-0.01129338,1.47E-08,-0.03896986,120.1431,19.98826,0,0
60811,13.07721,45.41976,-4.23192,90.15785,-0.008352572,1.47E-08,0.001683569,120.1431,19.98826,0,0
60811.1,-17.80029,45.41976,-4.23192,90.15785,-0.008352572,1.47E-08,0.001683569,120.1431,19.98826,0,0
60811.2,-33.41682,43.8013,-3.138896,94.39314,0.004420203,1.47E-08,0.02878585,120.1431,19.98826,0,0
60811.3,-12.01062,43.8013,-3.138896,94.39314,0.004420203,1.47E-08,0.02878585,122.2369,19.98826,1,0
60811.4,-85.63302,42.86863,-6.093906,94.38766,0.01074075,1.47E-08,-0.02541872,126.4246,19.98826,0,0
60811.5,-54.69782,42.86863,-6.093906,94.38766,0.01074075,1.47E-08,-0.02541872,126.4246,19.98826,0,0
60811.6,-13.73061,41.519,-6.714567,96.2993,0.01489958,1.47E-08,-0.03896986,126.4246,21.77699,0,1
60811.7,-0.6975812,41.519,-6.714567,96.2993,0.01489958,1.47E-08,-0.03896986,126.4246,25.35445,0,0
60811.8,38.10999,42.4407,-4.325294,97.78248,0.01111384,1.47E-08,-0.02541872,122.4791,25.35445,1,0
60811.9,8.605196,42.4407,-4.325294,97.78248,0.01111384,1.47E-08,-0.02541872,114.5883,25.35445,0,0
60812,-2.074755,44.15517,2.210879,100.3423,-0.001691855,1.47E-08,-0.052521,114.5883,25.35445,0,0
60812.1,23.95773,44.15517,2.210879,100.3423,-0.001691855,1.47E-08,-0.052521,114.5883,25.35445,0,0
60812.2,20.41568,44.04544,3.205036,99.99625,-0.01324661,1.47E-08,-0.052521,114.5883,25.35445,0,0
60812.3,42.757,44.04544,3.205036,99.99625,-0.01324661,1.47E-08,-0.052521,115.6048,25.35445,1,0
60812.4,37.28792,42.50104,-0.9583411,97.01891,-0.006333508,1.47E-08,-0.052521,117.638,25.35445,0,0
60812.5,69.96544,42.50104,-0.9583411,97.01891,-0.006333508,1.47E-08,-0.052521,117.638,25.35445,0,0
60812.6,100.2919,39.94992,0.8871666,100.2984,0.001336741,1.47E-08,-0.052521,117.638,25.35445,0,0
60812.7,96.82476,39.94992,0.8871666,100.2984,0.001336741,1.47E-08,-0.052521,117.638,25.35445,0,0
60812.8,83.16329,43.05791,-0.1838869,96.95849,0.002159729,1.47E-08,-0.02541872,118.4981,25.35445,1,0
60812.9,-0.4173823,43.05791,-0.1838869,96.95849,0.002159729,1.47E-08,-0.02541872,120.2184,25.35445,0,0
60813,-42.94331,46.95044,-0.7825784,90.26223,-0.00737596,1.47E-08,0.01523471,120.2184,25.35445,0,0
60813.1,-41.55077,46.95044,-0.7825784,90.26223,-0.00737596,1.47E-08,0.01523471,120.2184,25.35445,0,0
60813.2,-9.856971,47.1452,4.940693,90.09194,-0.01921602,1.47E-08,0.001683569,120.2184,25.35445,0,0
60813.3,78.72307,47.1452,4.940693,90.09194,-0.01921602,1.47E-08,0.001683569,121.2817,25.35445,1,0
60813.4,60.88937,47.48535,6.132583,87.89464,-0.01302714,1.47E-08,-0.01186757,123.4085,25.35445,0,0
60813.5,57.97686,47.48535,6.132583,87.89464,-0.01302714,1.47E-08,-0.01186757,123.4085,25.35445,0,0
60813.6,80.73101,46.89009,4.951678,88.42748,0.007130577,1.47E-08,-0.03896986,123.4085,25.35445,0,0
60813.7,103.3278,46.89009,4.951678,88.42748,0.007130577,1.47E-08,-0.03896986,123.4085,25.35445,0,0
60813.8,197.3116,46.17413,4.825348,92.92645,0.01849879,1.47E-08,-0.052521,120.4932,25.35445,1,0
60813.9,135.1637,46.17413,4.825348,92.92645,0.01849879,1.47E-08,-0.052521,114.6627,25.35445,0,1
60814,112.7956,44.45966,2.721689,94.68429,0.02140668,1.47E-08,0.01523471,114.6627,27.48182,0,0
60814.1,70.07573,44.45966,2.721689,94.68429,0.02140668,1.47E-08,0.01523471,114.6627,31.73656,0,0
60814.2,-10.17545,39.71126,3.886116,101.2542,0.01605177,1.47E-08,0.05588814,114.6627,31.73656,0,0
60814.3,-56.22824,39.71126,3.886116,101.2542,0.01605177,1.47E-08,0.05588814,118.7464,31.73656,1,0
60814.4,-133.4758,38.46038,5.731624,102.4792,0.00230238,1.47E-08,0.01523471,126.9139,31.73656,0,0
60814.5,-164.5901,38.46038,5.731624,102.4792,0.00230238,1.47E-08,0.01523471,126.9139,31.73656,0,0
60814.6,-201.6216,38.81151,5.12744,96.66186,-0.004687532,1.47E-08,-0.03896986,126.9139,31.73656,0,0
60814.7,-220.852,38.81151,5.12744,96.66186,-0.004687532,1.47E-08,-0.03896986,126.9139,31.73656,0,0
60814.8,-196.3645,39.01176,2.924915,90.48195,-0.005323976,1.47E-08,-0.09317443,122.5603,31.73656,1,0
60814.9,-188.5965,39.01176,2.924915,90.48195,-0.005323976,1.47E-08,-0.09317443,113.8531,31.73656,0,0
60815,-132.5009,45.00554,-1.804199,77.32015,-0.006673677,1.47E-08,-0.07962329,113.8531,31.73656,0,0
60815.1,-38.76712,45.00554,-1.804199,77.32015,-0.006673677,1.47E-08,-0.07962329,113.8531,31.73656,0,0
60815.2,5.747867,47.97912,-2.792864,75.10087,-0.01280768,1.47E-08,-0.03896986,113.8531,31.73656,0,0
60815.3,25.57901,47.97912,-2.792864,75.10087,-0.01280768,1.47E-08,-0.03896986,115.5616,31.73656,1,0
60815.4,-2.084348,46.88461,1.139825,82.60464,-0.01206151,0.1111111,-0.02541872,118.9788,31.73656,0,0
60815.5,12.46816,46.88461,1.139825,82.60464,-0.01206151,0.1111111,-0.02541872,118.9788,31.73656,0,0
60815.6,49.79615,45.44719,2.820556,86.5378,0.005078593,0.3333333,-0.02541872,118.9788,31.73656,0,0
60815.7,60.14575,45.44719,2.820556,86.5378,0.005078593,0.3333333,-0.02541872,118.9788,31.73656,0,0
60815.8,95.83713,41.03072,2.370164,89.09766,0.02339282,0.6666667,-0.07962329,119.5403,23.87817,0,0
60815.9,16.12959,41.03072,2.370164,89.09766,0.02339282,0.6666667,-0.07962329,120.6633,8.161373,0,0
60816,-10.41234,37.32472,0.8981518,89.19654,0.01563479,0.8888889,-0.1067256,120.6633,8.161373,0,0
60816.1,16.68287,37.32472,0.8981518,89.19654,0.01563479,0.8888889,-0.1067256,120.6633,8.161373,0,0
60816.2,23.21487,37.47285,4.770422,89.62501,-0.006125018,1,-0.09317443,120.6633,8.161373,0,0
60816.3,75.32167,37.47285,4.770422,89.62501,-0.006125018,1,-0.09317443,120.4602,8.161373,1,0
60816.4,-32.90764,37.87335,11.47687,90.05348,-0.006103072,1,-0.06607214,120.0541,8.161373,0,0
60816.5,-24.60626,37.87335,11.47687,90.05348,-0.006103072,1,-0.06607214,120.0541,8.161373,0,0
60816.6,29.27406,39.85939,11.83938,87.14206,-0.000814002,1,-0.01186757,120.0541,8.161373,0,0
60816.7,53.79203,39.85939,11.83938,87.14206,-0.000814002,1,-0.01186757,120.0541,8.161373,0,0
60816.8,78.39826,44.44594,10.94408,85.02717,0.002949797,1,-0.03896986,100.0773,8.161373,1,0
60816.9,38.47523,44.44594,10.94408,85.02717,0.002949797,1,-0.03896986,60.12382,8.161373,0,0
60817,61.22352,47.67463,11.98218,85.42268,0.000393048,1,-0.02541872,60.12382,8.161373,0,0
60817.1,75.49289,47.67463,11.98218,85.42268,0.000393048,1,-0.02541872,60.12382,8.161373,0,0
60817.2,56.92294,49.83349,11.03746,84.17022,-0.004797264,1,0.001683569,60.12382,8.161373,0,0
60817.3,68.10727,49.83349,11.03746,84.17022,-0.004797264,1,0.001683569,60.12382,8.161373,0,0
60817.4,33.70257,47.03273,11.62517,91.02578,-0.003579242,1,-0.01186757,60.12382,8.161373,0,0
60817.5,21.8608,47.03273,11.62517,91.02578,-0.003579242,1,-0.01186757,60.12382,8.161373,0,0
60817.6,-11.9252,45.96839,9.977391,89.33387,-0.003129341,1,0.001683569,60.12382,8.161373,0,0
60817.7,-94.73465,45.96839,9.977391,89.33387,-0.003129341,1,0.001683569,60.12382,8.161373,0,0
60817.8,-68.94256,46.29483,13.94853,88.54833,-0.006103072,1,-0.01186757,79.74989,8.161373,1,0
60817.9,-83.84423,46.29483,13.94853,88.54833,-0.006103072,1,-0.01186757,119.002,8.161373,0,0
60818,-67.80874,44.7422,25.58182,95.55772,-0.01327953,1,-0.02541872,119.002,8.161373,0,0
60818.1,-13.6424,44.7422,25.58182,95.55772,-0.01327953,1,-0.02541872,119.002,8.161373,0,0
60818.2,12.11738,45.10704,30.36586,93.90974,-0.0326801,1,0.02878585,119.002,8.161373,0,0
60818.3,65.69797,45.10704,30.36586,93.90974,-0.0326801,1,0.02878585,119.0481,8.161373,1,0
60818.4,25.13695,47.02176,30.84371,89.69093,-0.04038327,1,0.06943927,119.1403,8.161373,0,0
60818.5,33.33595,47.02176,30.84371,89.69093,-0.04038327,1,0.06943927,119.1403,8.161373,0,0
60818.6,59.764,48.34122,29.78913,87.43321,-0.02416492,1,0.06943927,119.1403,8.161373,0,0
60818.7,47.85635,48.34122,29.78913,87.43321,-0.02416492,1,0.06943927,119.1403,8.161373,0,0
60818.8,64.68602,50.46716,27.47676,84.49432,-0.01628618,1,0.06943927,118.7889,8.161373,1,0
60818.9,-53.50169,50.46716,27.47676,84.49432,-0.01628618,1,0.06943927,118.0861,8.161373,0,0
60819,-84.51202,53.07864,23.07171,81.51149,-0.01564973,1,0.1100927,118.0861,8.161373,0,0
60819.1,-53.79488,53.07864,23.07171,81.51149,-0.01564973,1,0.1100927,118.0861,8.161373,0,0
60819.2,-56.87163,55.08389,15.42054,76.17206,-0.01296131,1,0.06943927,118.0861,8.161373,0,0
60819.3,-40.93272,55.08389,15.42054,76.17206,-0.01296131,1,0.06943927,119.7174,8.161373,1,0
60819.4,-101.1906,55.03176,10.65847,73.07936,-0.007354014,1,-0.03896986,122.9799,8.161373,0,0
60819.5,-75.37157,55.03176,10.65847,73.07936,-0.007354014,1,-0.03896986,122.9799,8.161373,0,0
60819.6,-77.97467,51.60831,3.073214,67.39385,-0.006070152,1,-0.02541872,122.9799,8.161373,0,0
60819.7,-74.48244,51.60831,3.073214,67.39385,-0.006070152,1,-0.02541872,122.9799,8.161373,0,0
60819.8,1.860978,48.4674,-0.5134419,65.3284,-0.008583009,1,-0.03896986,121.0277,8.161373,1,0
60819.9,11.21474,48.4674,-0.5134419,65.3284,-0.008583009,1,-0.03896986,117.1232,8.161373,0,0
60820,8.256949,48.34945,9.76318,73.96927,-0.01472799,1,-0.09317443,117.1232,8.161373,0,0
60820.1,36.6049,48.34945,9.76318,73.96927,-0.01472799,1,-0.09317443,117.1232,8.161373,0,0
60820.2,59.86237,48.90905,16.42019,77.08394,-0.01199567,1,-0.01186757,117.1232,8.161373,0,0
60820.3,107.6788,48.90905,16.42019,77.08394,-0.01199567,1,-0.01186757,118.602,8.161373,1,0
60820.4,6.70547,51.23799,19.48505,80.74793,0.01413146,1,0.06943927,121.5595,8.161373,0,0
60820.5,-8.963867,51.23799,19.48505,80.74793,0.01413146,1,0.06943927,121.5595,8.161373,0,0
60820.6,17.16156,51.77016,15.77206,80.64356,0.02748582,1,0.06943927,121.5595,8.161373,0,0
60820.7,3.182571,51.77016,15.77206,80.64356,0.02748582,1,0.06943927,121.5595,8.161373,0,0
60820.8,10.79358,49.12027,10.10921,78.46823,0.004518961,1,0.05588814,122.7199,8.161373,1,0
60820.9,-18.71696,49.12027,10.10921,78.46823,0.004518961,1,0.05588814,125.0407,8.161373,0,0
60821,1.717804,46.48136,13.27294,85.86214,-0.001307794,1,0.06943927,125.0407,8.161373,0,0
60821.1,-5.760424,46.48136,13.27294,85.86214,-0.001307794,1,0.06943927,125.0407,8.161373,0,0
60821.2,-23.50186,45.50754,14.97564,88.52087,0.009325212,1,0.08299042,125.0407,8.161373,0,0
60821.3,-15.68437,45.50754,14.97564,88.52087,0.009325212,1,0.08299042,121.1555,8.161373,1,0
60821.4,-53.93331,45.85043,13.55855,87.04319,0.01214532,1,0.02878585,113.385,8.161373,0,0
60821.5,-13.12725,45.85043,13.55855,87.04319,0.01214532,1,0.02878585,113.385,8.161373,0,0
60821.6,22.86902,46.67887,12.97634,87.90563,0.017182,1,0.04233699,113.385,8.161373,0,0
60821.7,20.70756,46.67887,12.97634,87.90563,0.017182,1,0.04233699,113.385,8.161373,0,0
60821.8,14.69302,47.52102,10.21357,85.57649,0.01100411,1,0.01523471,115.455,8.161373,1,0
60821.9,-38.26892,47.52102,10.21357,85.57649,0.01100411,1,0.01523471,119.5949,8.161373,0,0
60822,-26.54458,47.67463,9.63685,83.71977,0.009983602,1,-0.02541872,119.5949,8.161373,0,0
60822.1,25.66897,47.67463,9.63685,83.71977,0.009983602,1,-0.02541872,119.5949,8.161373,0,0
60822.2,65.79977,47.70755,10.6365,81.68727,0.01883895,1,0.01523471,119.5949,8.161373,0,0
60822.3,98.88008,47.70755,10.6365,81.68727,0.01883895,1,0.01523471,120.0108,8.161373,1,0
60822.4,31.08854,47.21104,9.779657,78.50669,0.001940265,1,-0.02541872,120.8427,8.161373,0,0
60822.5,5.328613,47.21104,9.779657,78.50669,0.001940265,1,-0.02541872,120.8427,8.161373,0,0
60822.6,-5.053477,47.44421,13.86065,79.73717,-0.01461826,1,0.01523471,120.8427,8.161373,0,0
60822.7,-11.55546,47.44421,13.86065,79.73717,-0.01461826,1,0.01523471,120.8427,8.161373,0,0
60822.8,36.09534,47.62251,16.4147,81.46205,0.00206097,0.8888889,0.02878585,120.8939,8.161373,1,0
60822.9,-60.98859,47.62251,16.4147,81.46205,0.00206097,0.8888889,0.02878585,120.9963,8.161373,0,0
60823,-69.09829,47.72126,13.87163,82.09377,0.01235381,0.6666667,-0.01186757,120.9963,8.161373,0,0
60823.1,-36.24725,47.72126,13.87163,82.09377,0.01235381,0.6666667,-0.01186757,120.9963,8.161373,0,0
60823.2,-22.44467,47.47987,8.80747,81.31923,0.01502029,0.3333333,0.01523471,120.9963,9.528451,0,1
60823.3,-4.739161,47.47987,8.80747,81.31923,0.01502029,0.3333333,0.01523471,120.5835,12.26261,1,0
60823.4,-45.19935,46.46764,6.522556,83.54948,0.01875117,0.1111111,0.02878585,119.7579,12.26261,0,0
60823.5,2.132075,46.46764,6.522556,83.54948,0.01875117,0.1111111,0.02878585,119.7579,12.26261,0,0
60823.6,26.22448,46.29483,4.836333,84.46685,0.002104863,1.47E-08,0.05588814,119.7579,12.26261,0,0
60823.7,47.99337,46.29483,4.836333,84.46685,0.002104863,1.47E-08,0.05588814,119.7579,12.26261,0,0
60823.8,52.4618,45.34021,-1.139596,80.46228,-0.008341599,1.47E-08,0.01523471,119.1475,12.26261,1,0
60823.9,3.56664,45.34021,-1.139596,80.46228,-0.008341599,1.47E-08,0.01523471,117.9266,12.26261,0,0
60824,16.43204,44.21003,-6.654149,76.22699,-0.008593982,1.47E-08,-0.02541872,117.9266,12.26261,0,0
60824.1,9.225131,44.21003,-6.654149,76.22699,-0.008593982,1.47E-08,-0.02541872,117.9266,12.26261,0,0
60824.2,1.445471,45.524,-6.483879,75.63922,0.000886841,1.47E-08,0.001683569,117.9266,12.26261,0,0
60824.3,11.68816,45.524,-6.483879,75.63922,0.000886841,1.47E-08,0.001683569,118.639,12.26261,1,0
60824.4,-69.34642,46.48685,-8.153624,75.42497,0.00873266,1.47E-08,-0.052521,120.0638,12.26261,0,0
60824.5,-59.8491,46.48685,-8.153624,75.42497,0.00873266,1.47E-08,-0.052521,120.0638,12.26261,0,0
60824.6,-28.70273,46.827,-9.856324,76.84773,0.01010431,1.47E-08,-0.02541872,120.0638,12.26261,0,0
60824.7,11.54228,46.827,-9.856324,76.84773,0.01010431,1.47E-08,-0.02541872,120.0638,12.26261,0,0
60824.8,41.37319,47.66915,-7.659291,80.63257,0.02057272,1.47E-08,-0.01186757,120.3584,12.26261,1,0
60824.9,-14.43071,47.66915,-7.659291,80.63257,0.02057272,1.47E-08,-0.01186757,120.9477,12.26261,0,0
60825,29.91261,46.63498,-10.53191,82.42886,0.02371104,1.47E-08,-0.03896986,120.9477,12.26261,0,0
60825.1,54.23375,46.63498,-10.53191,82.42886,0.02371104,1.47E-08,-0.03896986,120.9477,12.26261,0,0
60825.2,-7.776042,47.28236,-8.576552,85.4007,0.008688768,1.47E-08,-0.02541872,120.9477,12.26261,0,0
60825.3,36.03281,47.28236,-8.576552,85.4007,0.008688768,1.47E-08,-0.02541872,120.8532,12.26261,1,0
60825.4,-35.73464,47.99558,-2.029395,91.88273,0.01356086,1.47E-08,-0.02541872,120.6642,12.26261,0,0
60825.5,-30.28709,47.99558,-2.029395,91.88273,0.01356086,1.47E-08,-0.02541872,120.6642,12.26261,0,0
60825.6,18.13118,44.40205,-2.858774,98.42519,0.02047396,1.47E-08,0.02878585,120.6642,12.26261,0,0
60825.7,29.09525,44.40205,-2.858774,98.42519,0.02047396,1.47E-08,0.02878585,120.6642,12.26261,0,0
60825.8,12.93921,43.41177,-5.204107,100.5181,0.01164055,1.47E-08,0.02878585,122.7914,12.26261,1,0
60825.9,-71.57157,43.41177,-5.204107,100.5181,0.01164055,1.47E-08,0.02878585,127.0457,12.26261,0,0
60826,-112.5586,44.2018,-7.027644,101.1004,0.01393395,1.47E-08,0.01523471,127.0457,12.26261,0,0
60826.1,-83.73863,44.2018,-7.027644,101.1004,0.01393395,1.47E-08,0.01523471,127.0457,12.26261,0,0
60826.2,-41.26071,44.91777,-8.175594,100.5181,0.009753166,1.47E-08,0.01523471,127.0457,12.26261,0,0
60826.3,26.70465,44.91777,-8.175594,100.5181,0.009753166,1.47E-08,0.01523471,120.6308,12.26261,1,0
60826.4,11.67648,46.68984,-7.637321,98.8207,0.004387283,1.47E-08,0.001683569,107.801,12.26261,0,0
60826.5,22.22744,46.68984,-7.637321,98.8207,0.004387283,1.47E-08,0.001683569,107.801,12.26261,0,0
60826.6,41.91802,47.20556,-7.384662,99.80398,0.004080034,1.47E-08,0.01523471,107.801,12.26261,0,0
60826.7,61.03783,47.20556,-7.384662,99.80398,0.004080034,1.47E-08,0.01523471,107.801,12.26261,0,0
60826.8,66.25561,46.00405,-9.153273,100.1116,0.007042792,1.47E-08,-0.01186757,107.801,12.26261,0,0
60826.9,19.07576,46.00405,-9.153273,100.1116,0.007042792,1.47E-08,-0.01186757,114.2729,12.26261,1,0
60827,-13.28241,45.3265,-9.922236,99.11184,0.01069686,1.47E-08,-0.052521,127.2169,12.26261,0,0
60827.1,8.174936,45.3265,-9.922236,99.11184,0.01069686,1.47E-08,-0.052521,127.2169,12.26261,0,0
60827.2,45.75181,47.57314,-8.03828,95.53025,0.006746516,1.47E-08,-0.06607214,127.2169,12.26261,0,0
60827.3,102.9804,47.57314,-8.03828,95.53025,0.006746516,1.47E-08,-0.06607214,125.2138,12.26261,1,0
60827.4,12.43864,48.38237,-6.555282,94.89853,0.008996017,1.47E-08,-0.06607214,121.2078,12.26261,0,0
60827.5,-3.356281,48.38237,-6.555282,94.89853,0.008996017,1.47E-08,-0.06607214,121.2078,12.26261,0,0
60827.6,48.12825,48.60456,-4.913,97.76051,0.01068589,1.47E-08,-0.02541872,121.2078,12.26261,0,0
60827.7,46.59796,48.60456,-4.913,97.76051,0.01068589,1.47E-08,-0.02541872,121.2078,12.26261,0,0
60827.8,73.27222,47.46341,-1.611958,103.2373,0.01290247,1.47E-08,0.01523471,121.1085,12.26261,1,0
60827.9,36.44623,47.46341,-1.611958,103.2373,0.01290247,1.47E-08,0.01523471,120.9099,12.26261,0,0
60828,36.99654,45.71328,0.7443594,108.0878,0.02671769,1.47E-08,-0.01186757,120.9099,12.26261,0,0
60828.1,26.31966,45.71328,0.7443594,108.0878,0.02671769,1.47E-08,-0.01186757,120.9099,12.26261,0,1
60828.2,-4.458616,47.07388,0.5026858,108.9722,0.02455598,1.47E-08,-0.03896986,120.9099,15.91553,0,0
60828.3,-12.05038,47.07388,0.5026858,108.9722,0.02455598,1.47E-08,-0.03896986,121.5499,23.22137,1,0
60828.4,-67.31928,48.65668,0.1566532,108.9832,0.01033474,1.47E-08,0.001683569,122.8299,23.22137,0,0
60828.5,-99.59137,48.65668,0.1566532,108.9832,0.01033474,1.47E-08,0.001683569,122.8299,23.22137,0,0
60828.6,-69.61614,47.41677,4.731974,113.1526,-0.00875858,1.47E-08,0.05588814,122.8299,23.22137,0,0
60828.7,-79.58671,47.41677,4.731974,113.1526,-0.00875858,1.47E-08,0.05588814,122.8299,23.22137,0,0
60828.8,-58.45105,46.70081,5.440517,115.7564,-0.01758101,1.47E-08,0.02878585,122.338,23.22137,1,0
60828.9,-65.8163,46.70081,5.440517,115.7564,-0.01758101,1.47E-08,0.02878585,121.3543,23.22137,0,0
60829,-63.95041,49.04346,0.4312823,109.148,-0.007496665,1.47E-08,0.01523471,121.3543,23.22137,0,0
60829.1,-66.59467,49.04346,0.4312823,109.148,-0.007496665,1.47E-08,0.01523471,121.3543,23.22137,0,0
60829.2,-58.40585,48.66765,0.2829826,108.9997,0.002686441,1.47E-08,0.04233699,121.3543,23.22137,0,0
60829.3,0.3072134,48.66765,0.2829826,108.9997,0.002686441,1.47E-08,0.04233699,119.0375,23.22137,1,0
60829.4,-9.248477,49.26292,1.754995,109.181,0.005232218,1.47E-08,0.02878585,114.4039,23.22137,0,0
60829.5,3.828777,49.26292,1.754995,109.181,0.005232218,1.47E-08,0.02878585,114.4039,23.22137,0,0
60829.6,20.504,50.82377,2.968856,105.6433,-0.00530203,1.47E-08,0.01523471,114.4039,23.22137,0,0
60829.7,21.42736,50.82377,2.968856,105.6433,-0.00530203,1.47E-08,0.01523471,114.4039,23.22137,0,0
60829.8,70.08154,50.16267,2.771122,104.259,-0.01073375,1.47E-08,0.01523471,116.9151,23.22137,1,0
60829.9,4.419701,50.16267,2.771122,104.259,-0.01073375,1.47E-08,0.01523471,121.9377,23.22137,0,0
60830,-5.365173,50.23399,0.6784486,102.5012,-0.01389403,1.47E-08,0.01523471,121.9377,23.22137,0,0
60830.1,15.32928,50.23399,0.6784486,102.5012,-0.01389403,1.47E-08,0.01523471,121.9377,23.22137,0,0
60830.2,16.06776,50.62078,1.271647,103.7976,-0.01147993,1.47E-08,0.04233699,121.9377,23.22137,0,0
60830.3,54.75882,50.62078,1.271647,103.7976,-0.01147993,1.47E-08,0.04233699,123.6765,23.22137,1,0
60830.4,-1.669097,50.50282,1.408962,103.88,-0.000517726,1.47E-08,0.02878585,127.1541,23.22137,0,0
60830.5,15.43534,50.50282,1.408962,103.88,-0.000517726,1.47E-08,0.02878585,127.1541,23.22137,0,0
60830.6,32.10567,51.47664,0.2280567,101.1828,0.003575268,1.47E-08,-0.03896986,127.1541,22.38906,0,1
60830.7,31.4328,51.47664,0.2280567,101.1828,0.003575268,1.47E-08,-0.03896986,127.1541,20.72445,0,0
60830.8,83.80782,51.37789,-1.123119,101.3751,0.004420203,1.47E-08,-0.02541872,124.9176,20.72445,1,0
60830.9,20.69305,51.37789,-1.123119,101.3751,0.004420203,1.47E-08,-0.02541872,120.4448,20.72445,0,0
60831,-36.79506,52.51904,-3.358599,100.3313,0.003158288,1.47E-08,0.01523471,120.4448,20.72445,0,0
60831.1,-45.8971,52.51904,-3.358599,100.3313,0.003158288,1.47E-08,0.01523471,120.4448,20.72445,0,0
60831.2,-69.54822,54.32129,-5.171152,97.57373,-0.002273434,1.47E-08,0.01523471,120.4448,20.72445,0,0
60831.3,-35.07047,54.32129,-5.171152,97.57373,-0.002273434,1.47E-08,0.01523471,119.0994,20.72445,1,0
60831.4,-21.50925,53.02103,-7.697739,97.85938,-0.004193739,1.47E-08,0.04233699,116.4088,20.72445,0,0
60831.5,12.45724,53.02103,-7.697739,97.85938,-0.004193739,1.47E-08,0.04233699,116.4088,20.72445,0,0
60831.6,44.03832,49.90207,-9.57071,102.0287,0.003213154,1.47E-08,0.05588814,116.4088,20.72445,0,0
60831.7,79.12484,49.90207,-9.57071,102.0287,0.003213154,1.47E-08,0.05588814,116.4088,20.72445,0,0
60831.8,130.0944,44.81901,-6.319101,110.4334,0.006998899,1.47E-08,-0.01186757,117.4799,20.72445,1,0
60831.9,104.2702,44.81901,-6.319101,110.4334,0.006998899,1.47E-08,-0.01186757,119.6221,20.72445,0,0
60832,135.1992,44.44046,-7.703232,108.3789,0.003959329,1.47E-08,-0.07962329,119.6221,20.72445,0,0
60832.1,156.4712,44.44046,-7.703232,108.3789,0.003959329,1.47E-08,-0.07962329,119.6221,20.72445,0,0
60832.2,137.9821,44.13596,-5.736887,109.3842,0.0101482,1.47E-08,-0.06607214,119.6221,20.72445,0,0
60832.3,158.9139,44.13596,-5.736887,109.3842,0.0101482,1.47E-08,-0.06607214,120.1887,20.72445,1,0
60832.4,29.63294,43.67512,0.7498521,111.3947,-0.007222336,1.47E-08,-0.02541872,121.3219,20.72445,0,0
60832.5,-20.53122,43.67512,0.7498521,111.3947,-0.007222336,1.47E-08,-0.02541872,121.3219,20.72445,0,0
60832.6,-48.57634,45.94096,2.216372,105.4071,-0.01126046,1.47E-08,-0.01186757,121.3219,20.72445,0,0
60832.7,-113.7978,45.94096,2.216372,105.4071,-0.01126046,1.47E-08,-0.01186757,121.3219,20.72445,0,0
60832.8,-101.1038,45.52949,2.782107,105.6763,0.01128941,1.47E-08,-0.052521,121.9632,20.72445,1,0
60832.9,-206.1409,45.52949,2.782107,105.6763,0.01128941,1.47E-08,-0.052521,123.2459,20.72445,0,0
60833,-188.9442,46.71453,1.161796,105.3137,0.008798499,1.47E-08,0.04233699,123.2459,20.72445,0,0
60833.1,-156.2892,46.71453,1.161796,105.3137,0.008798499,1.47E-08,0.04233699,123.2459,20.72445,0,0
60833.2,-144.7448,47.48535,-0.3266941,104.9621,-0.00436931,1.47E-08,0.02878585,123.2459,20.72445,0,0
60833.3,-81.01433,47.48535,-0.3266941,104.9621,-0.00436931,1.47E-08,0.02878585,122.5726,20.72445,1,0
60833.4,-110.4753,44.44046,0.3543861,108.1867,0.003147315,1.47E-08,-0.06607214,121.2261,20.72445,0,0
60833.5,-100.9505,44.44046,0.3543861,108.1867,0.003147315,1.47E-08,-0.06607214,121.2261,20.72445,0,1
60833.6,-69.58567,43.11825,2.979841,109.527,0.009402024,1.47E-08,-0.01186757,121.2261,24.60798,0,0
60833.7,-65.67199,43.11825,2.979841,109.527,0.009402024,1.47E-08,-0.01186757,121.2261,32.37504,0,0
60833.8,-22.87188,42.91801,2.397627,108.7745,8.99E-06,1.47E-08,0.001683569,121.9972,32.37504,1,0
60833.9,-69.25016,42.91801,2.397627,108.7745,8.99E-06,1.47E-08,0.001683569,123.5396,32.37504,0,0
60834,-58.26851,41.46962,-0.2937385,106.8683,-0.004599747,1.47E-08,-0.06607214,123.5396,32.37504,0,0
60834.1,-59.62451,41.46962,-0.2937385,106.8683,-0.004599747,1.47E-08,-0.06607214,123.5396,32.37504,0,0
60834.2,-48.87011,42.07586,0.4917007,103.0999,-0.006509079,1.47E-08,-0.07962329,123.5396,32.37504,0,0
60834.3,-2.198237,42.07586,0.4917007,103.0999,-0.006509079,1.47E-08,-0.07962329,121.6221,32.37504,1,0
60834.4,-6.196785,46.66241,-3.419018,94.83809,-0.01506816,1.47E-08,-0.09317443,117.7872,32.37504,0,0
60834.5,0.7039604,46.66241,-3.419018,94.83809,-0.01506816,1.47E-08,-0.09317443,117.7872,32.37504,0,0
60834.6,25.56352,49.43299,-8.615,88.67469,-0.02606328,1.47E-08,-0.06607214,117.7872,32.37504,0,0
60834.7,22.04259,49.43299,-8.615,88.67469,-0.02606328,1.47E-08,-0.06607214,117.7872,32.37504,0,0
60834.8,61.27084,49.04072,-8.120668,88.76806,-0.0283457,1.47E-08,-0.02541872,118.5705,32.37504,1,0
60834.9,55.35112,49.04072,-8.120668,88.76806,-0.0283457,1.47E-08,-0.02541872,120.1372,32.37504,0,0
60835,94.36431,49.00506,-7.0606,90.21828,-0.01663732,1.47E-08,-0.02541872,120.1372,32.37504,0,0
60835.1,146.9577,49.00506,-7.0606,90.21828,-0.01663732,1.47E-08,-0.02541872,120.1372,32.37504,0,0
60835.2,169.3241,49.27115,-6.346564,93.23407,0.01412049,1.47E-08,-0.052521,120.1372,32.37504,0,0
60835.3,245.8236,49.27115,-6.346564,93.23407,0.01412049,1.47E-08,-0.052521,120.3531,32.37504,1,0
60835.4,189.6216,45.26889,-6.670627,98.26039,0.02636655,1.47E-08,-0.02541872,120.785,25.08825,0,1
60835.5,164.536,45.26889,-6.670627,98.26039,0.02636655,1.47E-08,-0.02541872,120.785,10.51469,0,0
60835.6,137.6135,39.72224,-4.555983,104.1107,0.01225505,1.47E-08,-0.06607214,120.785,10.51469,0,0
60835.7,74.3771,39.72224,-4.555983,104.1107,0.01225505,1.47E-08,-0.06607214,120.785,10.51469,0,0
60835.8,48.38313,36.67185,-5.55014,102.5671,0.003816678,1.47E-08,-0.09317443,121.7619,10.51469,1,0
60835.9,-65.94198,36.67185,-5.55014,102.5671,0.003816678,1.47E-08,-0.09317443,123.7157,10.51469,0,0
60836,-86.89735,36.20003,-6.412475,98.09009,0.01425217,1.47E-08,-0.09317443,123.7157,10.51469,0,0
60836.1,-72.61399,36.20003,-6.412475,98.09009,0.01425217,1.47E-08,-0.09317443,123.7157,10.51469,0,0
60836.2,-80.27031,38.57011,-1.69984,102.1881,0.01473499,1.47E-08,-0.1067256,123.7157,10.51469,0,0
60836.3,-63.98487,38.57011,-1.69984,102.1881,0.01473499,1.47E-08,-0.1067256,125.0093,10.51469,1,0
60836.4,-53.77884,45.29632,0.1841161,101.7486,-0.01438782,1.47E-08,-0.07962329,127.5966,10.51469,0,0
60836.5,-22.78015,45.29632,0.1841161,101.7486,-0.01438782,1.47E-08,-0.07962329,127.5966,10.51469,0,0
60836.6,27.14098,49.89658,-5.154674,94.77218,-0.02047793,1.47E-08,-0.02541872,127.5966,10.51469,0,0
60836.7,76.86626,49.89658,-5.154674,94.77218,-0.02047793,1.47E-08,-0.02541872,122.6345,10.51469,1,0
60836.8,103.2559,49.64696,-11.26792,94.71175,0.004804264,1.47E-08,-0.03896986,112.7105,10.51469,0,0
60836.9,96.28142,49.64696,-11.26792,94.71175,0.004804264,1.47E-08,-0.03896986,112.7105,10.51469,0,0
60837,75.84087,49.96791,-16.19477,93.81636,0.0140327,1.47E-08,0.01523471,112.7105,10.51469,0,0
60837.1,49.19492,49.96791,-16.19477,93.81636,0.0140327,1.47E-08,0.01523471,112.7105,10.51469,0,0
60837.2,0.7015024,47.86391,-17.92493,94.12946,0.01379129,1.47E-08,-0.02541872,112.7105,10.51469,0,0
60837.3,-56.67141,47.86391,-17.92493,94.12946,0.01379129,1.47E-08,-0.02541872,115.9259,10.51469,1,0
60837.4,-115.9014,43.46938,-14.00872,100.8093,0.01035669,1.47E-08,-0.1067256,122.3567,10.51469,0,0
60837.5,-123.4392,43.46938,-14.00872,100.8093,0.01035669,1.47E-08,-0.1067256,122.3567,10.51469,0,0
60837.6,-122.4844,41.56289,-7.977862,104.4293,-0.002580683,1.47E-08,-0.09317443,122.3567,10.51469,0,0
60837.7,-101.064,41.56289,-7.977862,104.4293,-0.002580683,1.47E-08,-0.09317443,122.7597,10.51469,1,0
60837.8,-103.9295,38.86911,-1.968976,107.5989,0.001951238,1.47E-08,-0.07962329,123.5657,10.51469,0,0
60837.9,-125.396,38.86911,-1.968976,107.5989,0.001951238,1.47E-08,-0.07962329,123.5657,10.51469,0,0
60838,-112.075,38.63595,-1.260433,107.6868,0.007558531,1.47E-08,-0.06607214,123.5657,10.51469,0,0
60838.1,-95.89641,38.63595,-1.260433,107.6868,0.007558531,1.47E-08,-0.06607214,123.5657,10.51469,0,0
60838.2,-36.86778,40.96763,-0.2278276,109.8456,0.005956447,1.47E-08,-0.02541872,122.8041,10.51469,1,0
60838.3,-68.70809,40.96763,-0.2278276,109.8456,0.005956447,1.47E-08,-0.02541872,121.2808,10.51469,0,0
60838.4,-63.10635,43.64494,0.3214307,109.8237,0.005989367,1.47E-08,-0.03896986,121.2808,10.51469,0,0
60838.5,-24.86928,43.64494,0.3214307,109.8237,0.005989367,1.47E-08,-0.03896986,121.2808,10.51469,0,0
60838.6,-9.733902,46.00405,-1.419718,108.4888,-0.004073034,1.47E-08,-0.02541872,121.2808,10.51469,0,0
60838.7,18.10886,46.00405,-1.419718,108.4888,-0.004073034,1.47E-08,-0.02541872,123.0896,10.51469,1,0
60838.8,-1.580998,47.43049,-2.584145,109.0271,-0.01031677,1.47E-08,-0.02541872,126.7071,10.51469,0,0
60838.9,18.65954,47.43049,-2.584145,109.0271,-0.01031677,1.47E-08,-0.02541872,126.7071,10.51469,0,0
60839,19.41408,49.74022,-4.786671,104.1656,-0.003239073,1.47E-08,0.02878585,126.7071,10.51469,0,0
60839.1,47.87249,49.74022,-4.786671,104.1656,-0.003239073,1.47E-08,0.02878585,126.7071,10.51469,0,0
60839.2,65.98951,50.93075,-3.100448,104.6875,-0.003118368,1.47E-08,0.06943927,104.7749,10.51469,1,0
60839.3,36.46865,50.93075,-3.100448,104.6875,-0.003118368,1.47E-08,0.06943927,60.91035,10.51469,0,0
60839.4,43.95658,52.11579,-5.857724,104.1546,-0.004764344,1.47E-08,0.01523471,60.91035,10.51469,0,0
60839.5,47.71159,52.11579,-5.857724,104.1546,-0.004764344,1.47E-08,0.01523471,60.91035,10.51469,0,0
60839.6,32.42149,52.35445,-10.95484,99.53482,-0.001560177,1.47E-08,-0.052521,60.91035,10.51469,0,0
60839.7,22.53184,52.35445,-10.95484,99.53482,-0.001560177,1.47E-08,-0.052521,60.91035,10.51469,0,0
60839.8,-48.31245,51.8936,-12.06983,96.26085,-0.000166584,1.47E-08,-0.06607214,60.91035,10.51469,0,0
60839.9,-81.41154,51.8936,-12.06983,96.26085,-0.000166584,1.47E-08,-0.06607214,60.91035,10.51469,0,0
60840,-102.805,51.75644,-10.71866,97.17272,-0.005192298,1.47E-08,-0.06607214,60.91035,10.51469,0,0
60840.1,-101.0774,51.75644,-10.71866,97.17272,-0.005192298,1.47E-08,-0.06607214,60.91035,10.51469,0,0
60840.2,-23.74726,50.68113,-7.346214,100.8312,-0.01460728,1.47E-08,-0.06607214,79.24883,10.51469,1,0
60840.3,-15.7091,50.68113,-7.346214,100.8312,-0.01460728,1.47E-08,-0.06607214,115.9258,10.51469,0,0
60840.4,17.58963,49.30955,-7.884487,100.216,-0.006212803,1.47E-08,-0.052521,115.9258,10.51469,0,0
60840.5,78.14137,49.30955,-7.884487,100.216,-0.006212803,1.47E-08,-0.052521,115.9258,10.51469,0,0
60840.6,92.49376,49.49334,-7.939413,100.1391,-0.001165143,1.47E-08,-0.02541872,115.9258,10.51469,0,0
60840.7,146.4105,49.49334,-7.939413,100.1391,-0.001165143,1.47E-08,-0.02541872,116.9528,10.51469,1,0
60840.8,113.3752,51.26267,-6.796956,101.3036,-0.000210477,1.47E-08,0.02878585,119.007,10.51469,0,0
60840.9,128.818,51.26267,-6.796956,101.3036,-0.000210477,1.47E-08,0.02878585,119.007,10.51469,0,0
60841,142.0179,52.36816,-7.011167,103.1549,0.0134621,1.47E-08,0.06943927,119.007,10.51469,0,0
60841.1,122.8093,52.36816,-7.011167,103.1549,0.0134621,1.47E-08,0.06943927,119.007,10.51469,0,1
60841.2,93.75154,49.45494,-7.219885,108.4119,0.01917912,1.47E-08,0.01523471,99.53088,16.25278,1,0
60841.3,26.69645,49.45494,-7.219885,108.4119,0.01917912,1.47E-08,0.01523471,60.57873,27.72897,0,0
60841.4,-6.321128,44.23472,-6.648656,116.6628,0.004299498,1.47E-08,0.02878585,60.57873,27.72897,0,0
60841.5,-20.13337,44.23472,-6.648656,116.6628,0.004299498,1.47E-08,0.02878585,60.57873,27.72897,0,0
60841.6,-11.72256,46.30031,-6.126861,113.8942,-0.003842598,1.47E-08,0.04233699,60.57873,27.72897,0,0
60841.7,30.27468,46.30031,-6.126861,113.8942,-0.003842598,1.47E-08,0.04233699,60.57873,27.72897,0,0
60841.8,-9.786029,49.47688,-7.318751,107.7582,0.004178793,1.47E-08,-0.03896986,60.57873,27.72897,0,0
60841.9,-41.98259,49.47688,-7.318751,107.7582,0.004178793,1.47E-08,-0.03896986,60.57873,27.72897,0,0
60842,-74.59185,49.88561,-8.170101,104.3139,0.002927851,1.47E-08,-0.03896986,60.57873,27.72897,0,0
60842.1,-101.8351,49.88561,-8.170101,104.3139,0.002927851,1.47E-08,-0.03896986,60.57873,27.72897,0,0
60842.2,-68.89301,51.05694,-7.54944,99.01296,-0.01360872,1.47E-08,-0.01186757,81.48003,27.72897,1,0
60842.3,-121.6815,51.05694,-7.54944,99.01296,-0.01360872,1.47E-08,-0.01186757,123.2826,27.72897,0,0
60842.4,-133.7149,51.40806,-8.203057,93.81086,-0.02092783,1.47E-08,-0.03896986,123.2826,27.72897,0,0
60842.5,-105.4288,51.40806,-8.203057,93.81086,-0.02092783,1.47E-08,-0.03896986,123.2826,27.72897,0,0
60842.6,-48.33431,50.88138,-8.691897,91.29496,-0.00830868,1.47E-08,-0.02541872,123.2826,27.72897,0,0
60842.7,54.22498,50.88138,-8.691897,91.29496,-0.00830868,1.47E-08,-0.02541872,122.5348,27.72897,1,0
60842.8,17.60388,49.26292,-5.879695,94.08552,-0.005719011,1.47E-08,0.05588814,121.039,27.72897,0,0
60842.9,37.78465,49.26292,-5.879695,94.08552,-0.005719011,1.47E-08,0.05588814,121.039,27.72897,0,0
60843,47.97861,45.87513,-1.925035,100.6774,0.01386811,1.47E-08,0.02878585,121.039,27.72897,0,0
60843.1,16.76674,45.87513,-1.925035,100.6774,0.01386811,1.47E-08,0.02878585,121.039,27.72897,0,0
60843.2,45.74031,44.38011,1.079407,106.1047,0.03217136,1.47E-08,0.01523471,120.7843,27.72897,1,0
60843.3,13.79274,44.38011,1.079407,106.1047,0.03217136,1.47E-08,0.01523471,120.2749,27.72897,0,1
60843.4,15.59296,44.63248,3.611487,109.4611,0.02085802,1.47E-08,0.02878585,120.2749,28.76286,0,0
60843.5,19.90831,44.63248,3.611487,109.4611,0.02085802,1.47E-08,0.02878585,120.2749,30.83064,0,0
60843.6,-7.75166,46.34695,3.062229,106.731,0.01000555,1.47E-08,-0.01186757,120.2749,30.83064,0,0
60843.7,11.03085,46.34695,3.062229,106.731,0.01000555,1.47E-08,-0.01186757,120.6535,30.83064,1,0
60843.8,-24.94883,49.65245,2.29876,101.3586,-0.006915087,1.47E-08,-0.01186757,121.4107,30.83064,0,0
60843.9,3.523417,49.65245,2.29876,101.3586,-0.006915087,1.47E-08,-0.01186757,121.4107,30.83064,0,0
60844,33.34269,50.69759,3.430232,100.5785,-0.03126456,1.47E-08,0.05588814,121.4107,30.83064,0,0
60844.1,29.9322,50.69759,3.430232,100.5785,-0.03126456,1.47E-08,0.05588814,121.4107,30.83064,0,0
60844.2,48.84942,51.81679,-2.424861,92.03105,-0.02565727,1.47E-08,0.001683569,120.9199,30.83064,1,0
60844.3,5.006736,51.81679,-2.424861,92.03105,-0.02565727,1.47E-08,0.001683569,119.9381,30.83064,0,0
60844.4,28.67926,50.93075,-7.769143,88.11986,-0.01398181,1.47E-08,-0.03896986,119.9381,30.83064,0,0
60844.5,55.1675,50.93075,-7.769143,88.11986,-0.01398181,1.47E-08,-0.03896986,119.9381,30.83064,0,0
60844.6,43.23937,47.80905,-8.08222,93.27252,-0.01956716,1.47E-08,0.04233699,119.9381,30.83064,0,0
60844.7,49.14066,47.80905,-8.08222,93.27252,-0.01956716,1.47E-08,0.04233699,121.0117,30.83064,1,0
60844.8,-25.01337,48.14645,-9.91125,88.52087,-0.01090932,1.47E-08,0.02878585,123.1587,30.83064,0,0
60844.9,-35.06808,48.14645,-9.91125,88.52087,-0.01090932,1.47E-08,0.02878585,123.1587,30.83064,0,0
60845,-35.6157,48.31653,-7.554932,88.93286,0.003772785,1.47E-08,-0.03896986,123.1587,30.83064,0,0
60845.1,-48.79353,48.31653,-7.554932,88.93286,0.003772785,1.47E-08,-0.03896986,123.1587,30.83064,0,0
60845.2,-11.30197,46.79682,-4.836104,92.83856,0.003772785,1.47E-08,-0.01186757,123.5245,26.03795,0,0
60845.3,-68.25395,46.79682,-4.836104,92.83856,0.003772785,1.47E-08,-0.01186757,124.2559,16.45257,0,0
60845.4,-85.71307,44.08659,-5.42381,93.54169,0.002576709,1.47E-08,-0.02541872,124.2559,16.45257,0,0
60845.5,-78.07823,44.08659,-5.42381,93.54169,0.002576709,1.47E-08,-0.02541872,124.2559,16.45257,0,0
60845.6,-43.96215,41.18708,-4.303324,94.70077,0.001490365,1.47E-08,-0.06607214,124.2655,16.45257,1,0
60845.7,-30.51078,41.18708,-4.303324,94.70077,0.001490365,1.47E-08,-0.06607214,124.2848,16.45257,0,0
60845.8,-39.33831,40.91551,-4.193472,91.46525,-0.001691855,1.47E-08,-0.06607214,124.2848,16.45257,0,0
60845.9,-38.31508,40.91551,-4.193472,91.46525,-0.001691855,1.47E-08,-0.06607214,124.2848,16.45257,0,0
60846,-12.81342,41.7796,-3.221285,90.63577,0.009028936,1.47E-08,-0.07962329,124.2848,16.45257,0,0
60846.1,8.411833,41.7796,-3.221285,90.63577,0.009028936,1.47E-08,-0.07962329,121.5749,16.45257,1,0
60846.2,-10.73399,44.29507,-1.007774,89.64149,0.01260619,1.47E-08,-0.07962329,116.1549,16.45257,0,0
60846.3,-16.81799,44.29507,-1.007774,89.64149,0.01260619,1.47E-08,-0.07962329,116.1549,16.45257,0,0
60846.4,15.32992,46.26465,-0.7331451,89.90516,-0.001198063,1.47E-08,-0.03896986,116.1549,16.45257,0,0
60846.5,42.80793,46.26465,-0.7331451,89.90516,-0.001198063,1.47E-08,-0.03896986,116.1549,16.45257,0,0
60846.6,73.65297,44.55567,-2.919193,94.46456,-0.006509079,1.47E-08,-0.052521,118.3172,16.45257,1,0
60846.7,50.03184,44.55567,-2.919193,94.46456,-0.006509079,1.47E-08,-0.052521,122.6418,16.45257,0,0
60846.8,28.05062,45.01377,-7.269318,92.21233,-0.007946565,1.47E-08,-0.07962329,122.6418,16.45257,0,0
60846.9,3.87047,45.01377,-7.269318,92.21233,-0.007946565,1.47E-08,-0.07962329,122.6418,16.45257,0,0
60847,-27.39983,44.98909,-9.142288,93.70099,0.009808032,1.47E-08,-0.052521,122.6418,16.45257,0,0
60847.1,-18.49235,44.98909,-9.142288,93.70099,0.009808032,1.47E-08,-0.052521,122.6531,16.45257,1,0
60847.2,-50.92956,44.723,-10.15842,97.93629,0.02261373,1.47E-08,-0.06607214,122.6756,16.45257,0,0
60847.3,-55.18984,44.723,-10.15842,97.93629,0.02261373,1.47E-08,-0.06607214,122.6756,16.45257,0,0
60847.4,-32.42587,48.25618,-10.18039,97.08483,0.0123977,1.47E-08,-0.052521,122.6756,16.45257,0,0
60847.5,2.64053,48.25618,-10.18039,97.08483,0.0123977,1.47E-08,-0.052521,122.6756,16.45257,0,0
60847.6,100.5106,50.03923,-7.86801,100.2105,0.01951929,1.47E-08,0.04233699,122.835,16.45257,1,0
60847.7,46.66331,50.03923,-7.86801,100.2105,0.01951929,1.47E-08,0.04233699,123.1536,16.45257,0,0
60847.8,61.83131,50.62626,-11.15257,99.77652,0.02258081,1.47E-08,0.05588814,123.1536,16.45257,0,0
60847.9,111.6059,50.62626,-11.15257,99.77652,0.02258081,1.47E-08,0.05588814,123.1536,16.45257,0,0
60848,117.3369,49.71828,-11.7238,101.864,0.000371101,1.47E-08,-0.01186757,123.1536,16.45257,0,0
60848.1,161.0492,49.71828,-11.7238,101.864,0.000371101,1.47E-08,-0.01186757,123.5236,16.45257,1,0
60848.2,67.69973,48.86242,-7.631829,105.9894,-0.004073034,1.47E-08,0.001683569,124.2636,16.45257,0,0
60848.3,56.56995,48.86242,-7.631829,105.9894,-0.004073034,1.47E-08,0.001683569,124.2636,16.45257,0,0
60848.4,59.316,47.89134,-5.149181,107.7033,0.0104774,1.47E-08,0.01523471,124.2636,16.45257,0,0
60848.5,44.587,47.89134,-5.149181,107.7033,0.0104774,1.47E-08,0.01523471,124.2636,16.45257,0,0
60848.6,48.94479,46.02051,-4.281354,110.7081,0.01438385,1.47E-08,-0.01186757,123.658,16.45257,1,0
60848.7,-68.67151,46.02051,-4.281354,110.7081,0.01438385,1.47E-08,-0.01186757,122.447,16.45257,0,0
60848.8,-112.9668,45.03298,-6.483879,110.9223,0.02552162,1.47E-08,-0.02541872,122.447,21.11327,0,1
60848.9,-102.918,45.03298,-6.483879,110.9223,0.02552162,1.47E-08,-0.02541872,122.447,30.43465,0,0
60849,-89.53124,45.47188,-4.929478,110.0489,0.02258081,1.47E-08,-0.052521,122.447,30.43465,0,0
60849.1,-7.299959,45.47188,-4.929478,110.0489,0.02258081,1.47E-08,-0.052521,120.6062,30.43465,1,0
60849.2,-14.2014,46.85992,-4.907507,107.2363,0.003278993,1.47E-08,-0.07962329,116.9244,30.43465,0,0
60849.3,42.14954,46.85992,-4.907507,107.2363,0.003278993,1.47E-08,-0.07962329,116.9244,30.43465,0,0
60849.4,59.63595,43.41452,-6.950749,109.7248,-0.01594601,1.47E-08,-0.06607214,116.9244,30.43465,0,0
60849.5,22.22266,43.41452,-6.950749,109.7248,-0.01594601,1.47E-08,-0.06607214,116.9244,30.43465,0,0
60849.6,3.536809,41.01426,-3.677169,110.5872,-0.02465871,1.47E-08,-0.07962329,119.067,30.43465,1,0
60849.7,-50.93496,41.01426,-3.677169,110.5872,-0.02465871,1.47E-08,-0.07962329,123.3522,30.43465,0,0
60849.8,-63.61102,42.25142,-6.709074,106.9342,-0.003370751,1.47E-08,-0.07962329,123.3522,30.43465,0,0
60849.9,-68.82925,42.25142,-6.709074,106.9342,-0.003370751,1.47E-08,-0.07962329,123.3522,30.43465,0,0
60850,-88.66025,43.21975,-13.02005,104.0283,0.000184557,1.47E-08,-0.06607214,123.3522,30.43465,0,0
60850.1,-59.19972,43.21975,-13.02005,104.0283,0.000184557,1.47E-08,-0.06607214,122.9536,30.43465,1,0
60850.2,-88.58616,44.70929,-11.25144,100.8422,-0.01942451,1.47E-08,-0.03896986,122.1564,30.43465,0,0
60850.3,-94.73288,44.70929,-11.25144,100.8422,-0.01942451,1.47E-08,-0.03896986,122.1564,30.43465,0,0
60850.4,-66.2895,46.21802,-7.510992,100.1885,-0.01124949,1.47E-08,-0.01186757,122.1564,30.43465,0,0
60850.5,-57.99187,46.21802,-7.510992,100.1885,-0.01124949,1.47E-08,-0.01186757,122.1564,30.43465,0,0
60850.6,-25.05747,47.1068,-6.753016,100.9081,0.003377751,1.47E-08,0.001683569,122.8372,30.43465,1,0
60850.7,-127.1214,47.1068,-6.753016,100.9081,0.003377751,1.47E-08,0.001683569,124.1989,30.43465,0,0
60850.8,-131.3551,45.8669,-7.472544,103.2318,0.01361572,1.47E-08,0.001683569,124.1989,33.00621,0,1
60850.9,-88.97818,45.8669,-7.472544,103.2318,0.01361572,1.47E-08,0.001683569,124.1989,38.14933,0,0
60851,-48.0602,44.11951,-6.511342,106.5112,0.01705033,1.47E-08,-0.03896986,124.1989,38.14933,0,0
60851.1,10.34535,44.11951,-6.511342,106.5112,0.01705033,1.47E-08,-0.03896986,125.5351,38.14933,1,0
60851.2,37.93485,43.4008,-6.242205,104.7699,0.004091008,1.47E-08,-0.06607214,128.2077,38.14933,0,0
60851.3,53.40104,43.4008,-6.242205,104.7699,0.004091008,1.47E-08,-0.06607214,128.2077,38.14933,0,0
60851.4,84.31857,44.41028,-7.428603,99.72159,-0.000265343,1.47E-08,-0.09317443,128.2077,38.14933,0,0
60851.5,113.9672,44.41028,-7.428603,99.72159,-0.000265343,1.47E-08,-0.09317443,121.9987,38.14933,1,0
60851.6,148.2167,48.16017,-7.57141,94.6733,-0.006157938,1.47E-08,-0.06607214,109.5806,38.14933,0,0
60851.7,121.886,48.16017,-7.57141,94.6733,-0.006157938,1.47E-08,-0.06607214,109.5806,38.14933,0,0
60851.8,130.2678,50.48362,-8.702882,90.84451,-0.01986343,1.47E-08,-0.052521,109.5806,38.14933,0,0
60851.9,147.3661,50.48362,-8.702882,90.84451,-0.01986343,1.47E-08,-0.052521,109.5806,38.14933,0,0
60852,108.9621,48.36865,-10.40009,92.59136,-0.01237973,1.47E-08,-0.03896986,109.5806,38.14933,0,0
60852.1,36.39266,48.36865,-10.40009,92.59136,-0.01237973,1.47E-08,-0.03896986,117.9877,38.14933,1,0
60852.2,9.047981,42.66564,-10.30672,102.9296,0.005451681,1.47E-08,-0.052521,134.802,38.14933,0,0
60852.3,32.40183,42.66564,-10.30672,102.9296,0.005451681,1.47E-08,-0.052521,134.802,38.14933,0,0
60852.4,57.67169,38.2135,-10.30672,109.3348,0.007997458,1.47E-08,-0.09317443,134.802,35.91605,0,1
60852.5,104.4808,38.2135,-10.30672,109.3348,0.007997458,1.47E-08,-0.09317443,127.8921,31.44948,1,0
60852.6,130.2843,34.89977,-9.444381,109.4227,-0.001483365,1.47E-08,-0.1202767,114.0724,31.44948,0,0
60852.7,126.2673,34.89977,-9.444381,109.4227,-0.001483365,1.47E-08,-0.1202767,114.0724,31.44948,0,0
60852.8,62.88798,32.70525,-9.197214,108.346,-0.004830183,1.47E-08,-0.1880324,114.0724,31.44948,0,0
60852.9,14.99792,32.70525,-9.197214,108.346,-0.004830183,1.47E-08,-0.1880324,114.0724,31.44948,0,0
60853,2.901605,34.56237,-8.29643,104.1272,-0.000440914,1.47E-08,-0.1744813,118.492,31.44948,1,0
60853.1,-133.902,34.56237,-8.29643,104.1272,-0.000440914,1.47E-08,-0.1744813,127.3314,31.44948,0,0
60853.2,-205.1698,39.51376,-4.605415,98.5735,-0.01771269,1.47E-08,-0.09317443,127.3314,31.44948,0,0
60853.3,-209.4859,39.51376,-4.605415,98.5735,-0.01771269,1.47E-08,-0.09317443,127.3314,31.44948,0,0
60853.4,-172.7053,40.74269,-3.803499,96.5355,-0.01552903,1.47E-08,-0.09317443,127.3314,31.44948,0,0
60853.5,-59.81291,40.74269,-3.803499,96.5355,-0.01552903,1.47E-08,-0.09317443,125.8562,31.44948,1,0
60853.6,-142.7053,36.12322,-6.681611,98.87014,-0.003370751,1.47E-08,-0.1202767,122.9058,31.44948,0,0
60853.7,-142.2267,36.12322,-6.681611,98.87014,-0.003370751,1.47E-08,-0.1202767,122.9058,31.44948,0,0
60853.8,-96.44115,32.52421,-8.823719,101.6113,-0.01523275,1.47E-08,-0.1067256,122.9058,31.44948,0,0
60853.9,-38.9064,32.52421,-8.823719,101.6113,-0.01523275,1.47E-08,-0.1067256,122.9058,31.44948,0,0
60854,78.23213,30.39552,-11.52058,100.3753,-0.000693297,1.47E-08,-0.09317443,124.1818,31.44948,1,0
60854.1,7.397725,30.39552,-11.52058,100.3753,-0.000693297,1.47E-08,-0.09317443,126.7338,31.44948,0,0
60854.2,-10.27722,29.62469,-11.55902,99.21071,0.0179611,1.47E-08,-0.1744813,126.7338,31.44948,0,0
60854.3,11.62134,29.62469,-11.55902,99.21071,0.0179611,1.47E-08,-0.1744813,126.7338,31.44948,0,1
60854.4,24.93973,31.04839,-5.451273,99.392,0.009017963,1.47E-08,-0.147379,126.7338,27.77663,0,0
60854.5,81.28963,31.04839,-5.451273,99.392,0.009017963,1.47E-08,-0.147379,122.4719,20.43094,1,0
60854.6,48.05945,31.80824,-2.342472,100.4632,0.01019209,1.47E-08,-0.1338278,113.948,20.43094,0,0
60854.7,28.68978,31.80824,-2.342472,100.4632,0.01019209,1.47E-08,-0.1338278,113.948,20.43094,0,0
60854.8,41.72687,30.98255,-7.373677,99.69412,-0.004457095,1.47E-08,-0.1609301,113.948,20.43094,0,0
60854.9,31.8855,30.98255,-7.373677,99.69412,-0.004457095,1.47E-08,-0.1609301,113.948,20.43094,0,0
60855,60.51727,29.07058,-10.42755,97.25513,-0.0254817,1.47E-08,-0.147379,121.2914,20.43094,1,0
60855.1,7.659782,29.07058,-10.42755,97.25513,-0.0254817,1.47E-08,-0.147379,135.9783,20.43094,0,0
60855.2,0.5410729,27.87731,-12.70697,96.26085,-0.003897464,1.47E-08,-0.1744813,135.9783,20.43094,0,0
60855.3,29.52412,27.87731,-12.70697,96.26085,-0.003897464,1.47E-08,-0.1744813,135.9783,20.43094,0,0
60855.4,21.22586,29.56709,-12.29503,95.91478,0.01611761,1.47E-08,-0.2015836,128.2938,20.43094,1,0
60855.5,26.30139,29.56709,-12.29503,95.91478,0.01611761,1.47E-08,-0.2015836,112.925,20.43094,0,0
60855.6,-19.0823,31.83019,-14.52502,95.50828,0.01462526,1.47E-08,-0.1609301,112.925,20.43094,0,0
60855.7,-35.27688,31.83019,-14.52502,95.50828,0.01462526,1.47E-08,-0.1609301,112.925,20.43094,0,0
60855.8,-15.38694,30.66709,-20.51743,98.44167,-0.003557295,1.47E-08,-0.1609301,112.925,20.43094,0,0
60855.9,-25.15139,30.66709,-20.51743,98.44167,-0.003557295,1.47E-08,-0.1609301,112.925,20.43094,0,0
60856,-7.77416,28.3409,-17.66678,102.9296,-0.007364987,1.47E-08,-0.1609301,116.0765,20.43094,1,0
60856.1,-54.62277,28.3409,-17.66678,102.9296,-0.007364987,1.47E-08,-0.1609301,122.3796,20.43094,0,0
60856.2,-47.74585,24.92842,-19.47933,104.671,0.007009872,1.47E-08,-0.1744813,122.3796,20.43094,0,0
60856.3,-50.56465,24.92842,-19.47933,104.671,0.007009872,1.47E-08,-0.1744813,122.3796,20.43094,0,0
60856.4,-42.55438,23.46083,-22.74192,104.1546,0.0104335,1.47E-08,-0.1880324,122.3796,20.43094,0,0
60856.5,37.35499,23.46083,-22.74192,104.1546,0.0104335,1.47E-08,-0.1880324,122.9534,20.43094,1,0
60856.6,9.213904,23.77081,-19.69903,101.7431,-6.78E-05,1.47E-08,-0.2015836,124.1009,20.43094,0,0
60856.7,21.14993,23.77081,-19.69903,101.7431,-6.78E-05,1.47E-08,-0.2015836,124.1009,20.43094,0,0
60856.8,52.2184,21.72442,-16.9857,101.4794,-0.008242841,1.47E-08,-0.1880324,124.1009,20.43094,0,0
60856.9,64.69079,21.72442,-16.9857,101.4794,-0.008242841,1.47E-08,-0.1880324,123.6526,20.43094,1,0
60857,50.07966,20.79997,-15.96957,102.0837,-0.00025437,1.47E-08,-0.1744813,122.7559,20.43094,0,0
60857.1,-14.84676,20.79997,-15.96957,102.0837,-0.00025437,1.47E-08,-0.1744813,122.7559,20.43094,0,0
60857.2,-18.16728,23.38677,-13.98125,101.419,0.02085802,1.47E-08,-0.1338278,122.7559,21.2984,0,1
60857.3,-1.507945,23.38677,-13.98125,101.419,0.02085802,1.47E-08,-0.1338278,122.7559,23.03331,0,0
60857.4,11.46682,26.97481,-11.31186,104.2261,0.03559499,1.47E-08,-0.1338278,125.8138,23.03331,1,0
60857.5,-10.73282,26.97481,-11.31186,104.2261,0.03559499,1.47E-08,-0.1338278,131.9295,23.03331,0,0
60857.6,-7.566034,27.79775,-11.76774,109.8511,-0.000287289,1.47E-08,-0.1338278,131.9295,23.03331,0,0
60857.7,10.34769,27.79775,-11.76774,109.8511,-0.000287289,1.47E-08,-0.1338278,131.9295,23.03331,0,0
60857.8,23.92873,26.33017,-13.8,111.4442,-0.01891974,1.47E-08,-0.1202767,131.9295,23.03331,0,0
60857.9,23.55995,26.33017,-13.8,111.4442,-0.01891974,1.47E-08,-0.1202767,126.8915,23.03331,1,0
60858,-0.193237,25.52917,-11.49861,109.7358,-0.007672236,1.47E-08,-0.1609301,116.8155,23.03331,0,0
60858.1,-1.35204,25.52917,-11.49861,109.7358,-0.007672236,1.47E-08,-0.1609301,116.8155,23.03331,0,0
60858.2,8.178076,25.19999,-6.698089,107.8955,0.001907346,1.47E-08,-0.1880324,116.8155,23.03331,0,0
60858.3,-5.725171,25.19999,-6.698089,107.8955,0.001907346,1.47E-08,-0.1880324,116.8155,23.03331,0,0
60858.4,30.60622,23.42791,-7.835054,108.2416,0.02148349,1.47E-08,-0.2151347,116.7152,23.03331,1,0
60858.5,32.14384,23.42791,-7.835054,108.2416,0.02148349,1.47E-08,-0.2151347,116.5145,23.03331,0,0
60858.6,29.03385,21.71893,-11.81718,107.7252,0.01966194,1.47E-08,-0.2151347,116.5145,23.03331,0,0
60858.7,-7.272907,21.71893,-11.81718,107.7252,0.01966194,1.47E-08,-0.2151347,116.5145,23.03331,0,0
60858.8,-36.15565,20.83015,-12.36643,107.9065,0.006011313,1.47E-08,-0.2015836,116.5145,23.03331,0,0
60858.9,4.499695,20.83015,-12.36643,107.9065,0.006011313,1.47E-08,-0.2015836,118.781,23.03331,1,0
60859,-53.68178,22.86831,-9.790414,108.4833,0.005923528,1.47E-08,-0.2151347,123.3139,23.03331,0,0
60859.1,-74.83747,22.86831,-9.790414,108.4833,0.005923528,1.47E-08,-0.2151347,123.3139,23.03331,0,0
60859.2,-37.38344,24.96957,-5.736887,108.5492,-0.001944238,1.47E-08,-0.1609301,123.3139,23.03331,0,0
60859.3,21.206,24.96957,-5.736887,108.5492,-0.001944238,1.47E-08,-0.1609301,123.3139,23.03331,0,0
60859.4,95.11066,25.68004,-6.588238,106.9562,-0.01190788,1.47E-08,-0.1202767,125.8001,23.03331,1,0
60859.5,-21.67215,25.68004,-6.588238,106.9562,-0.01190788,1.47E-08,-0.1202767,130.7727,23.03331,0,0
60859.6,-55.83549,27.998,-10.58684,103.6273,0.007569504,1.47E-08,-0.1744813,130.7727,23.03331,0,0
60859.7,-46.58713,27.998,-10.58684,103.6273,0.007569504,1.47E-08,-0.1744813,130.7727,23.03331,0,0
60859.8,-42.07355,29.40524,-9.922236,104.6161,0.03235791,1.47E-08,-0.1609301,130.7727,28.48698,0,1
60859.9,18.68495,29.40524,-9.922236,104.6161,0.03235791,1.47E-08,-0.1609301,126.4445,39.39433,1,0
60860,-4.990714,26.42344,-9.971669,110.1423,0.02927444,1.47E-08,-0.147379,117.7882,39.39433,0,0
60860.1,-29.67794,26.42344,-9.971669,110.1423,0.02927444,1.47E-08,-0.147379,117.7882,39.39433,0,0
60860.2,-10.20849,24.81046,-9.592681,113.7953,-0.00160407,1.47E-08,-0.1744813,117.7882,39.39433,0,0
60860.3,4.941396,24.81046,-9.592681,113.7953,-0.00160407,1.47E-08,-0.1744813,117.7882,39.39433,0,0
60860.4,59.3793,25.35361,-9.301574,115.5312,-0.0154193,1.47E-08,-0.1880324,118.2796,39.39433,1,0
60860.5,25.08844,25.35361,-9.301574,115.5312,-0.0154193,1.47E-08,-0.1880324,119.2626,39.39433,0,0
60860.6,7.002124,24.56358,-11.25144,114.3226,-0.01916115,1.47E-08,-0.2015836,119.2626,39.39433,0,0
60860.7,7.933697,24.56358,-11.25144,114.3226,-0.01916115,1.47E-08,-0.2015836,119.2626,39.39433,0,0
60860.8,7.903088,23.32916,-6.40149,111.543,-0.01719695,1.47E-08,-0.1609301,119.2626,39.39433,0,0
60860.9,45.56054,23.32916,-6.40149,111.543,-0.01719695,1.47E-08,-0.1609301,120.6181,39.39433,1,0
60861,-2.7126,24.66233,-3.38057,108.9722,-0.004665586,1.47E-08,-0.1338278,123.3292,39.39433,0,0
60861.1,8.401424,24.66233,-3.38057,108.9722,-0.004665586,1.47E-08,-0.1338278,123.3292,39.39433,0,0
60861.2,6.927455,25.79525,-9.153273,106.297,0.009226453,1.47E-08,-0.1338278,123.3292,39.39433,0,0
60861.3,-1.017508,25.79525,-9.153273,106.297,0.009226453,1.47E-08,-0.1338278,123.3292,39.39433,0,0
60861.4,46.38386,26.29451,-13.34411,106.6266,0.004705505,1.47E-08,-0.1202767,124.0291,30.11454,0,0
60861.5,-56.64835,26.29451,-13.34411,106.6266,0.004705505,1.47E-08,-0.1202767,125.4288,11.55496,0,0
60861.6,-65.69872,28.61247,-10.94935,106.709,-0.003798705,1.47E-08,-0.1338278,125.4288,11.55496,0,0
60861.7,7.405283,28.61247,-10.94935,106.709,-0.003798705,1.47E-08,-0.1338278,125.4288,11.55496,0,0
60861.8,59.57702,29.25163,-8.065742,108.3405,-0.000243396,1.47E-08,-0.1338278,124.7784,11.55496,1,0
60861.9,77.17134,29.25163,-8.065742,108.3405,-0.000243396,1.47E-08,-0.1338278,123.4777,11.55496,0,0
60862,16.76685,29.69327,-8.752315,109.3677,-0.001768668,1.47E-08,-0.1338278,123.4777,11.55496,0,0
60862.1,-3.150941,29.69327,-8.752315,109.3677,-0.001768668,1.47E-08,-0.1338278,123.4777,11.55496,0,0
60862.2,-14.76951,29.96759,-10.66923,107.8076,0.000799055,1.47E-08,-0.1202767,123.4777,11.55496,0,0
60862.3,6.117945,29.96759,-10.66923,107.8076,0.000799055,1.47E-08,-0.1202767,102.2709,11.55496,1,0
60862.4,-27.90599,27.74289,-11.77873,107.8626,0.004288525,1.47E-08,-0.1202767,59.85745,11.55496,0,0
60862.5,-36.33026,27.74289,-11.77873,107.8626,0.004288525,1.47E-08,-0.1202767,59.85745,11.55496,0,0
60862.6,-28.62316,26.70049,-11.23496,107.0715,-0.000737189,1.47E-08,-0.1202767,59.85745,11.55496,0,0
60862.7,0.4694746,26.70049,-11.23496,107.0715,-0.000737189,1.47E-08,-0.1202767,59.85745,11.55496,0,0
60862.8,27.48589,26.61546,-5.731395,106.4398,-0.003765785,1.47E-08,-0.147379,59.85745,11.55496,0,0
60862.9,-15.89692,26.61546,-5.731395,106.4398,-0.003765785,1.47E-08,-0.147379,59.85745,11.55496,0,0
60863,-15.7545,30.31323,-4.176994,102.5341,0.009687327,1.47E-08,-0.147379,59.85745,11.55496,0,0
60863.1,-12.2426,30.31323,-4.176994,102.5341,0.009687327,1.47E-08,-0.147379,59.85745,11.55496,0,0
60863.2,-8.223655,32.7656,-8.999481,99.83695,0.004475069,1.47E-08,-0.1744813,59.85745,11.55496,0,0
60863.3,15.41496,32.7656,-8.999481,99.83695,0.004475069,1.47E-08,-0.1744813,80.61268,11.55496,1,0
60863.4,2.363526,30.63417,-10.7626,103.4625,-0.01155674,1.47E-08,-0.1609301,122.1231,11.55496,0,0
60863.5,8.037124,30.63417,-10.7626,103.4625,-0.01155674,1.47E-08,-0.1609301,122.1231,11.55496,0,0
60863.6,3.867463,30.59577,-7.955891,106.6321,-0.004347364,1.47E-08,-0.09317443,122.1231,11.55496,0,0
60863.7,12.13563,30.59577,-7.955891,106.6321,-0.004347364,1.47E-08,-0.09317443,122.1231,11.55496,0,0
60863.8,47.25523,32.03592,-6.093906,107.8681,0.004782318,1.47E-08,-0.09317443,125.0868,11.55496,1,0
60863.9,-36.27897,32.03592,-6.093906,107.8681,0.004782318,1.47E-08,-0.09317443,131.0141,11.55496,0,0
60864,-55.78632,32.77383,-6.670627,107.6648,0.007393933,1.47E-08,-0.09317443,131.0141,11.55496,0,0
60864.1,-38.55636,32.77383,-6.670627,107.6648,0.007393933,1.47E-08,-0.09317443,131.0141,11.55496,0,0
60864.2,-46.87595,33.6489,-7.802099,107.9395,-0.004248605,1.47E-08,-0.06607214,131.0141,11.55496,0,0
60864.3,37.41159,33.6489,-7.802099,107.9395,-0.004248605,1.47E-08,-0.06607214,123.9439,11.55496,1,0
60864.4,11.185,35.98058,-7.153974,106.7255,-0.01020704,1.47E-08,-0.06607214,109.8036,11.55496,0,0
60864.5,8.268822,35.98058,-7.153974,106.7255,-0.01020704,1.47E-08,-0.06607214,109.8036,11.55496,0,0
60864.6,4.539222,38.60029,-3.979261,106.9892,0.00299369,1.47E-08,-0.03896986,109.8036,11.55496,0,0
60864.7,-19.37261,38.60029,-3.979261,106.9892,0.00299369,1.47E-08,-0.03896986,109.8036,11.55496,0,0
60864.8,28.80192,39.74144,-1.134104,110.2192,0.001973185,1.47E-08,-0.03896986,115.2529,11.55496,1,0
60864.9,28.98885,39.74144,-1.134104,110.2192,0.001973185,1.47E-08,-0.03896986,126.1515,11.55496,0,0
60865,54.488,39.73321,-4.045172,110.5762,0.003520402,1.47E-08,-0.052521,126.1515,11.55496,0,0
60865.1,67.5922,39.73321,-4.045172,110.5762,0.003520402,1.47E-08,-0.052521,126.1515,11.55496,0,0
60865.2,25.76062,38.16961,-6.456416,111.9331,0.006153964,1.47E-08,-0.06607214,126.1515,11.55496,0,0
60865.3,50.4677,38.16961,-6.456416,111.9331,0.006153964,1.47E-08,-0.06607214,126.5944,11.55496,1,0
60865.4,-2.747851,37.00377,-7.560425,112.2682,-0.008264787,1.47E-08,-0.052521,127.4801,11.55496,0,0
60865.5,-15.56094,37.00377,-7.560425,112.2682,-0.008264787,1.47E-08,-0.052521,127.4801,11.55496,0,0
60865.6,12.33586,35.46212,-7.966876,110.4169,-0.005477601,1.47E-08,-0.06607214,127.4801,11.55496,0,0
60865.7,35.37164,35.46212,-7.966876,110.4169,-0.005477601,1.47E-08,-0.06607214,127.4801,11.55496,0,0
60865.8,91.42799,33.42121,-6.472893,109.6808,-0.005214245,1.47E-08,-0.1067256,126.3808,11.55496,1,0
60865.9,-22.10008,33.42121,-6.472893,109.6808,-0.005214245,1.47E-08,-0.1067256,124.1822,11.55496,0,0
60866,-62.6057,35.03419,-4.100098,104.7479,-0.02239824,1.47E-08,-0.09317443,124.1822,11.55496,0,0
60866.1,-69.44215,35.03419,-4.100098,104.7479,-0.02239824,1.47E-08,-0.09317443,124.1822,11.55496,0,0
60866.2,-79.5375,37.00377,3.693876,105.0226,-0.01264308,1.47E-08,-0.06607214,124.1822,11.55496,0,0
60866.3,-29.61471,37.00377,3.693876,105.0226,-0.01264308,1.47E-08,-0.06607214,122.9856,11.55496,1,0
60866.4,-53.17976,39.02822,5.80852,106.9397,0.01700643,1.47E-08,-0.052521,120.5925,11.55496,0,0
60866.5,-52.02076,39.02822,5.80852,106.9397,0.01700643,1.47E-08,-0.052521,120.5925,11.55496,0,0
60866.6,-41.04856,41.87835,-1.688854,102.7758,0.006153964,1.47E-08,-0.03896986,120.5925,16.98607,0,1
60866.7,-38.98512,41.87835,-1.688854,102.7758,0.006153964,1.47E-08,-0.03896986,120.5925,27.84829,0,0
60866.8,-33.2753,42.69033,-2.617101,102.8912,-0.0102619,1.47E-08,0.001683569,124.932,27.84829,1,0
60866.9,-23.40638,42.69033,-2.617101,102.8912,-0.0102619,1.47E-08,0.001683569,133.611,27.84829,0,0
60867,39.19414,43.93846,-4.012216,102.254,-0.00253679,1.47E-08,-0.03896986,133.611,27.84829,0,0
60867.1,52.4295,43.93846,-4.012216,102.254,-0.00253679,1.47E-08,-0.03896986,133.611,27.84829,0,0
60867.2,74.83693,43.46664,-6.643164,103.3087,0.002741307,1.47E-08,-0.07962329,127.2791,27.84829,1,0
60867.3,57.88727,43.46664,-6.643164,103.3087,0.002741307,1.47E-08,-0.07962329,114.6154,27.84829,0,0
60867.4,21.56706,43.23347,-4.819627,102.9296,-0.00094568,1.47E-08,-0.03896986,114.6154,27.84829,0,0
60867.5,10.79054,43.23347,-4.819627,102.9296,-0.00094568,1.47E-08,-0.03896986,114.6154,27.84829,0,0
60867.6,-6.441267,42.76714,-8.483179,99.38101,-0.003359778,1.47E-08,-0.06607214,114.6154,27.84829,0,0
60867.7,6.511463,42.76714,-8.483179,99.38101,-0.003359778,1.47E-08,-0.06607214,117.1448,27.84829,1,0
60867.8,-19.31559,41.61775,-12.6136,99.10085,-0.002141756,1.47E-08,-0.052521,122.2037,27.84829,0,0
60867.9,-0.4972568,41.61775,-12.6136,99.10085,-0.002141756,1.47E-08,-0.052521,122.2037,27.84829,0,0
60868,2.038608,43.32674,-5.934621,98.23841,-0.02511958,1.47E-08,-0.01186757,122.2037,27.84829,0,0
60868.1,3.295437,43.32674,-5.934621,98.23841,-0.02511958,1.47E-08,-0.01186757,122.2037,27.84829,0,0
60868.2,58.57473,40.66863,1.919772,102.9846,-0.03173641,1.47E-08,-0.01186757,124.8636,27.84829,1,0
60868.3,-41.2836,40.66863,1.919772,102.9846,-0.03173641,1.47E-08,-0.01186757,130.1834,27.84829,0,0
60868.4,-73.43391,39.49456,-0.8320116,100.6994,-0.000781082,1.47E-08,-0.052521,130.1834,27.84829,0,0
60868.5,-59.512,39.49456,-0.8320116,100.6994,-0.000781082,1.47E-08,-0.052521,130.1834,27.84829,0,0
60868.6,-49.58444,38.72373,-6.538804,96.44761,0.009478836,1.47E-08,-0.09317443,130.1834,27.84829,0,0
60868.7,-2.331953,38.72373,-6.538804,96.44761,0.009478836,1.47E-08,-0.09317443,125.5692,27.84829,0,0
60868.8,-60.17997,37.8569,-5.555632,94.89303,0.007953565,1.47E-08,-0.09317443,116.3408,28.99594,0,0
60868.9,-65.00484,37.8569,-5.555632,94.89303,0.007953565,1.47E-08,-0.09317443,116.3408,31.29124,0,0
60869,-49.95154,39.13246,-2.419368,91.59159,0.01009333,1.47E-08,-0.06607214,116.3408,31.29124,0,0
60869.1,-41.94691,39.13246,-2.419368,91.59159,0.01009333,1.47E-08,-0.06607214,116.3408,31.29124,0,0
60869.2,20.22281,40.44917,-0.9583411,89.58106,-0.01551806,1.47E-08,-0.09317443,122.2744,31.29124,1,0
60869.3,-36.6226,40.44917,-0.9583411,89.58106,-0.01551806,1.47E-08,-0.09317443,134.1415,31.29124,0,0
60869.4,18.48065,41.01975,-2.358949,86.93332,-0.01912823,1.47E-08,-0.09317443,134.1415,31.29124,0,0
60869.5,36.67529,41.01975,-2.358949,86.93332,-0.01912823,1.47E-08,-0.09317443,134.1415,31.29124,0,0
60869.6,27.56728,39.17086,-7.944906,84.23064,-0.009669353,1.47E-08,-0.07962329,127.2949,31.29124,1,0
60869.7,95.5785,39.17086,-7.944906,84.23064,-0.009669353,1.47E-08,-0.07962329,113.6017,31.29124,0,0
60869.8,71.75592,34.79005,-12.72345,86.5378,-0.01008633,1.47E-08,-0.1202767,113.6017,31.29124,0,0
60869.9,55.85863,34.79005,-12.72345,86.5378,-0.01008633,1.47E-08,-0.1202767,113.6017,31.29124,0,0
60870,54.20834,31.36385,-12.52572,90.41604,-0.004259578,1.47E-08,-0.147379,113.6017,31.29124,0,0
60870.1,67.56766,31.36385,-12.52572,90.41604,-0.004259578,1.47E-08,-0.147379,113.6017,31.29124,0,0
60870.2,126.8685,34.36486,-12.2456,86.785,-0.008648848,1.47E-08,-0.1338278,116.3701,31.29124,1,0
60870.3,98.21838,34.36486,-12.2456,86.785,-0.008648848,1.47E-08,-0.1338278,121.9069,31.29124,0,0
60870.4,22.68975,37.60727,-11.31735,86.58175,0.004036142,1.47E-08,-0.1202767,121.9069,31.29124,0,0
60870.5,-27.95961,37.60727,-11.31735,86.58175,0.004036142,1.47E-08,-0.1202767,121.9069,31.29124,0,0
60870.6,-45.23164,38.8746,-10.66923,89.0702,0.01079562,1.47E-08,-0.09317443,121.9069,32.59599,0,1
60870.7,-32.16593,38.8746,-10.66923,89.0702,0.01079562,1.47E-08,-0.09317443,124.8996,35.20547,1,0
60870.8,-31.21012,41.1185,-11.91604,87.49912,0.01038961,1.47E-08,-0.03896986,130.8849,35.20547,0,0
60870.9,-27.24958,41.1185,-11.91604,87.49912,0.01038961,1.47E-08,-0.03896986,130.8849,35.20547,0,0
60871,-38.13167,40.11999,-11.85013,92.16288,0.007262255,1.47E-08,-0.07962329,130.8849,35.20547,0,0
60871.1,-22.61158,40.11999,-11.85013,92.16288,0.007262255,1.47E-08,-0.07962329,126.8362,35.20547,1,0
60871.2,-38.51818,38.94044,-10.47699,94.60189,-0.003096422,1.47E-08,-0.09317443,118.7387,35.20547,0,0
60871.3,-63.59127,38.94044,-10.47699,94.60189,-0.003096422,1.47E-08,-0.09317443,118.7387,35.20547,0,0
60871.4,-49.50128,37.71151,-11.92703,91.99809,-0.008155055,1.47E-08,-0.052521,118.7387,35.20547,0,0
60871.5,-45.45122,37.71151,-11.92703,91.99809,-0.008155055,1.47E-08,-0.052521,118.7387,35.20547,0,0
60871.6,-22.34051,36.94342,-14.41517,90.56985,-0.008155055,1.47E-08,-0.07962329,118.9167,35.20547,1,0
60871.7,-54.02824,36.94342,-14.41517,90.56985,-0.008155055,1.47E-08,-0.07962329,119.2727,35.20547,0,0
60871.8,-10.34819,39.78807,-12.59163,85.31281,-0.006410321,1.47E-08,-0.1338278,119.2727,35.20547,0,0
60871.9,74.65585,39.78807,-12.59163,85.31281,-0.006410321,1.47E-08,-0.1338278,119.2727,35.20547,0,0
60872,45.51252,41.29406,-9.71901,84.04937,-0.001944238,1.47E-08,-0.1067256,119.2727,35.20547,0,0
60872.1,42.22547,41.29406,-9.71901,84.04937,-0.001944238,1.47E-08,-0.1067256,121.1498,35.20547,1,0
60872.2,-40.5242,41.63147,-9.960684,85.71932,0.01213434,1.47E-08,-0.07962329,124.9039,35.20547,0,0
60872.3,-74.22897,41.63147,-9.960684,85.71932,0.01213434,1.47E-08,-0.07962329,124.9039,35.20547,0,1
60872.4,-47.28083,42.13895,-10.8395,85.59847,0.01455942,1.47E-08,-0.09317443,124.9039,31.02348,0,0
60872.5,-33.71992,42.13895,-10.8395,85.59847,0.01455942,1.47E-08,-0.09317443,124.9039,22.6595,0,0
60872.6,21.51558,42.1801,-11.52058,87.46616,0.009237426,1.47E-08,-0.09317443,124.9272,22.6595,1,0
60872.7,-30.56817,42.1801,-11.52058,87.46616,0.009237426,1.47E-08,-0.09317443,124.9738,22.6595,0,0
60872.8,-32.96425,41.92498,-11.92703,87.17503,-0.007968511,1.47E-08,-0.07962329,124.9738,22.6595,0,0
60872.9,-10.12491,41.92498,-11.92703,87.17503,-0.007968511,1.47E-08,-0.07962329,124.9738,22.6595,0,0
60873,0.5420703,42.18833,-5.198615,89.03174,-0.02469163,1.47E-08,-0.052521,124.9738,22.6595,0,0
60873.1,72.44523,42.18833,-5.198615,89.03174,-0.02469163,1.47E-08,-0.052521,123.1095,22.6595,1,0
60873.2,45.71934,43.37337,-1.568018,91.16312,-0.009065829,1.47E-08,-0.02541872,119.3808,22.6595,0,0
60873.3,82.528,43.37337,-1.568018,91.16312,-0.009065829,1.47E-08,-0.02541872,119.3808,22.6595,0,0
60873.4,128.1822,45.59532,-8.40079,84.40093,-0.000320209,1.47E-08,-0.02541872,119.3808,22.6595,0,0
60873.5,118.632,45.59532,-8.40079,84.40093,-0.000320209,1.47E-08,-0.02541872,119.3808,22.6595,0,0
60873.6,99.60235,43.7821,-11.59747,85.14801,-0.003930383,1.47E-08,-0.03896986,120.8151,22.6595,1,0
60873.7,-18.81875,43.7821,-11.59747,85.14801,-0.003930383,1.47E-08,-0.03896986,123.6837,22.6595,0,0
60873.8,-26.12591,42.1609,-11.24045,89.52613,0.001764695,1.47E-08,-0.02541872,123.6837,22.6595,0,0
60873.9,5.399247,42.1609,-11.24045,89.52613,0.001764695,1.47E-08,-0.02541872,123.6837,22.6595,0,0
60874,25.94737,42.41601,-11.35031,88.36157,0.000480833,1.47E-08,-0.03896986,123.6837,22.6595,0,0
60874.1,81.62148,42.41601,-11.35031,88.36157,0.000480833,1.47E-08,-0.03896986,123.4876,22.6595,1,0
60874.2,46.90084,41.15964,-10.19137,89.69642,0.01032377,1.47E-08,-0.06607214,123.0953,22.6595,0,0
60874.3,25.61303,41.15964,-10.19137,89.69642,0.01032377,1.47E-08,-0.06607214,123.0953,22.6595,0,0
60874.4,-20.68158,39.68383,-8.538104,92.18486,0.01832322,1.47E-08,-0.052521,123.0953,22.6595,0,0
60874.5,-73.52657,39.68383,-8.538104,92.18486,0.01832322,1.47E-08,-0.052521,123.0953,22.6595,0,0
60874.6,-86.36401,39.30527,-7.587888,92.92095,0.008941151,1.47E-08,-0.09317443,123.2794,22.6595,1,0
60874.7,-133.9569,39.30527,-7.587888,92.92095,0.008941151,1.47E-08,-0.09317443,123.6477,22.6595,0,0
60874.8,-138.0565,38.28208,-4.621893,93.60212,0.006834301,1.47E-08,-0.1202767,123.6477,22.6595,0,0
60874.9,-121.5612,38.28208,-4.621893,93.60212,0.006834301,1.47E-08,-0.1202767,123.6477,22.6595,0,0
60875,-72.59217,36.90502,-0.3266941,93.82734,0.01823543,1.47E-08,-0.09317443,125.7181,19.20218,0,0
60875.1,-57.76604,36.90502,-0.3266941,93.82734,0.01823543,1.47E-08,-0.09317443,129.8589,12.28755,0,0
60875.2,-92.66896,38.61949,1.452902,92.92095,0.01414244,1.47E-08,-0.07962329,129.8589,12.28755,0,0
60875.3,-71.88467,38.61949,1.452902,92.92095,0.01414244,1.47E-08,-0.07962329,129.8589,12.28755,0,0
60875.4,-64.00407,40.22149,3.100677,93.80536,-0.00250387,1.47E-08,-0.052521,129.8589,12.28755,0,0
60875.5,-16.35796,40.22149,3.100677,93.80536,-0.00250387,1.47E-08,-0.052521,128.8186,12.28755,1,0
60875.6,10.56894,42.47362,-0.3431718,89.93263,-0.006574918,1.47E-08,-0.052521,126.7382,12.28755,0,0
60875.7,74.00637,42.47362,-0.3431718,89.93263,-0.006574918,1.47E-08,-0.052521,126.7382,12.28755,0,0
60875.8,136.9575,46.58011,-4.160517,82.98368,-0.007738075,1.47E-08,-0.06607214,126.7382,12.28755,0,0
60875.9,151.9087,46.58011,-4.160517,82.98368,-0.007738075,1.47E-08,-0.06607214,126.7382,12.28755,0,0
60876,149.8336,47.5457,1.068422,87.05967,-0.0244173,1.47E-08,-0.02541872,120.9708,12.28755,1,0
60876.1,100.9668,47.5457,1.068422,87.05967,-0.0244173,1.47E-08,-0.02541872,109.4361,12.28755,0,0
60876.2,94.69272,44.27587,-2.117276,90.63027,-0.02067545,1.47E-08,0.001683569,109.4361,12.28755,0,0
60876.3,62.79967,44.27587,-2.117276,90.63027,-0.02067545,1.47E-08,0.001683569,109.4361,12.28755,0,0
60876.4,1.213213,40.10353,-11.56452,91.55863,-0.001593097,1.47E-08,-0.052521,109.4361,12.28755,0,0
60876.5,-26.11659,40.10353,-11.56452,91.55863,-0.001593097,1.47E-08,-0.052521,115.7052,12.28755,1,0
60876.6,-87.59595,37.00377,-15.63452,93.19012,0.0027852,1.47E-08,-0.07962329,128.2433,12.28755,0,0
60876.7,-44.11541,37.00377,-15.63452,93.19012,0.0027852,1.47E-08,-0.07962329,128.2433,12.28755,0,0
60876.8,-8.578138,35.3524,-13.93182,93.62409,0.003169261,1.47E-08,-0.07962329,128.2433,12.28755,0,0
60876.9,17.02624,35.3524,-13.93182,93.62409,0.003169261,1.47E-08,-0.07962329,128.2433,12.28755,0,0
60877,59.31915,34.67209,-11.45467,92.4815,0.007075711,1.47E-08,-0.1202767,127.022,12.28755,1,0
60877.1,-7.182574,34.67209,-11.45467,92.4815,0.007075711,1.47E-08,-0.1202767,124.5795,12.28755,0,0
60877.2,-0.3865996,35.26187,-8.752315,90.71816,0.01430703,1.47E-08,-0.1067256,124.5795,12.28755,0,0
60877.3,22.44592,35.26187,-8.752315,90.71816,0.01430703,1.47E-08,-0.1067256,124.5795,12.28755,0,0
60877.4,33.9109,38.6963,-6.560775,88.37255,0.004979835,1.47E-08,-0.06607214,124.5795,12.28755,0,0
60877.5,47.78165,38.6963,-6.560775,88.37255,0.004979835,1.47E-08,-0.06607214,124.7397,12.28755,1,0
60877.6,-65.28993,40.67136,-6.027995,90.76761,0.007942592,1.47E-08,-0.07962329,125.0602,12.28755,0,0
60877.7,-78.96093,40.67136,-6.027995,90.76761,0.007942592,1.47E-08,-0.07962329,125.0602,12.28755,0,0
60877.8,-77.17379,39.02273,-5.736887,96.00815,0.009039909,1.47E-08,-0.06607214,125.0602,12.28755,0,0
60877.9,-75.19836,39.02273,-5.736887,96.00815,0.009039909,1.47E-08,-0.06607214,125.0602,12.28755,0,0
60878,-61.73243,37.45365,-6.522327,98.11207,-0.004149847,1.47E-08,-0.06607214,125.628,12.28755,1,0
60878.1,-72.77122,37.45365,-6.522327,98.11207,-0.004149847,1.47E-08,-0.06607214,126.7637,12.28755,0,0
60878.2,-13.80554,35.69529,-8.345864,99.04593,0.003268019,1.47E-08,-0.07962329,126.7637,12.28755,0,0
60878.3,26.88942,35.69529,-8.345864,99.04593,0.003268019,1.47E-08,-0.07962329,126.7637,12.28755,0,0
60878.4,64.73189,34.59528,-4.940463,101.6113,0.007964538,1.47E-08,-0.06607214,124.0887,12.28755,1,0
60878.5,28.35995,34.59528,-4.940463,101.6113,0.007964538,1.47E-08,-0.06607214,118.7387,12.28755,0,0
60878.6,8.849389,35.41549,-3.325644,102.0892,0.003586242,1.47E-08,-0.07962329,118.7387,12.28755,0,0
60878.7,7.711406,35.41549,-3.325644,102.0892,0.003586242,1.47E-08,-0.07962329,118.7387,12.28755,0,0
60878.8,-1.689859,39.28882,-6.456416,95.60715,0.002324326,1.47E-08,-0.1067256,118.7387,12.28755,0,0
60878.9,10.90407,39.28882,-6.456416,95.60715,0.002324326,1.47E-08,-0.1067256,120.5766,12.28755,1,0
60879,-45.23948,42.18559,-9.400439,87.82872,-0.004896022,1.47E-08,-0.1202767,124.2524,12.28755,0,0
60879.1,-59.40567,42.18559,-9.400439,87.82872,-0.004896022,1.47E-08,-0.1202767,124.2524,12.28755,0,0
60879.2,-62.07993,41.62598,-10.19686,83.26933,-0.01106295,1.47E-08,-0.1067256,124.2524,12.28755,0,0
60879.3,-19.05181,41.62598,-10.19686,83.26933,-0.01106295,1.47E-08,-0.1067256,124.2524,12.28755,0,0
60879.4,60.64866,40.83596,-10.44403,81.20386,-0.008341599,1.47E-08,-0.1067256,124.2926,12.28755,1,0
60879.5,-9.95653,40.83596,-10.44403,81.20386,-0.008341599,1.47E-08,-0.1067256,124.373,12.28755,0,0
60879.6,-40.69644,41.03895,-7.988846,80.55566,-0.002185648,1.47E-08,-0.1338278,124.373,12.28755,0,0
60879.7,9.215173,41.03895,-7.988846,80.55566,-0.002185648,1.47E-08,-0.1338278,124.373,12.28755,0,0
60879.8,47.36046,39.07759,-3.627736,81.8301,0.0173905,1.47E-08,-0.1067256,124.373,12.28755,0,0
60879.9,109.3051,39.07759,-3.627736,81.8301,0.0173905,1.47E-08,-0.1067256,124.6173,12.28755,0,0
60880,54.27355,36.01075,1.008004,87.34531,0.01924496,1.47E-08,-0.09317443,125.106,19.10355,0,0
60880.1,47.41292,36.01075,1.008004,87.34531,0.01924496,1.47E-08,-0.09317443,125.106,32.73556,0,0
60880.2,44.76939,33.93967,6.10512,92.71222,0.003410671,1.47E-08,-0.09317443,125.106,32.73556,0,0
60880.3,59.45597,33.93967,6.10512,92.71222,0.003410671,1.47E-08,-0.09317443,125.106,32.73556,0,0
60880.4,97.27746,31.53119,8.955769,95.54123,-0.005653172,1.47E-08,-0.1202767,103.6584,32.73556,1,0
60880.5,6.63349,31.53119,8.955769,95.54123,-0.005653172,1.47E-08,-0.1202767,60.76342,32.73556,0,0
60880.6,-17.12868,30.09926,6.802677,93.71747,-0.02212391,1.47E-08,-0.147379,60.76342,32.73556,0,0
60880.7,-23.60699,30.09926,6.802677,93.71747,-0.02212391,1.47E-08,-0.147379,60.76342,32.73556,0,0
60880.8,-46.19608,31.16909,5.495443,89.92714,-0.01860152,1.47E-08,-0.147379,60.76342,32.73556,0,0
60880.9,-7.503326,31.16909,5.495443,89.92714,-0.01860152,1.47E-08,-0.147379,60.76342,32.73556,0,0
60881,-36.52378,34.2716,8.027524,89.0647,-0.008648848,1.47E-08,-0.147379,60.76342,32.73556,0,0
60881.1,-45.37693,34.2716,8.027524,89.0647,-0.008648848,1.47E-08,-0.147379,60.76342,32.73556,0,0
60881.2,-29.3602,35.86811,5.720639,87.02122,-0.001746721,1.47E-08,-0.147379,60.76342,32.73556,0,0
60881.3,-20.5697,35.86811,5.720639,87.02122,-0.001746721,1.47E-08,-0.147379,60.76342,32.73556,0,0
60881.4,2.485992,34.2716,1.386992,87.70237,0.01483375,1.47E-08,-0.147379,81.98406,32.73556,1,0
60881.5,-42.29199,34.2716,1.386992,87.70237,0.01483375,1.47E-08,-0.147379,124.4253,32.73556,0,0
60881.6,-1.086219,32.62022,1.145318,94.28878,0.02393051,1.47E-08,-0.1202767,124.4253,32.73556,0,0
60881.7,42.42923,32.62022,1.145318,94.28878,0.02393051,1.47E-08,-0.1202767,124.4253,32.73556,0,1
60881.8,44.34594,31.405,1.733024,100.227,0.02489615,1.47E-08,-0.09317443,124.4253,33.05752,0,0
60881.9,34.27162,31.405,1.733024,100.227,0.02489615,1.47E-08,-0.09317443,124.0873,33.70144,1,0
60882,-48.32197,29.55337,-0.08502046,101.2487,0.02287708,1.47E-08,-0.09317443,123.4113,33.70144,0,0
60882.1,-37.05313,29.55337,-0.08502046,101.2487,0.02287708,1.47E-08,-0.09317443,123.4113,33.70144,0,0
60882.2,-16.21491,26.60997,-4.512042,100.8367,0.001007545,1.47E-08,-0.1338278,123.4113,33.70144,0,0
60882.3,22.30874,26.60997,-4.512042,100.8367,0.001007545,1.47E-08,-0.1338278,124.4258,33.70144,1,0
60882.4,-6.654457,27.29302,-2.408383,97.23315,-0.008418412,1.47E-08,-0.1067256,126.455,33.70144,0,0
60882.5,-26.4023,27.29302,-2.408383,97.23315,-0.008418412,1.47E-08,-0.1067256,126.455,33.70144,0,0
60882.6,-15.22336,32.3843,6.731275,92.48699,-0.01221513,1.47E-08,-0.07962329,126.455,33.70144,0,0
60882.7,-6.071171,32.3843,6.731275,92.48699,-0.01221513,1.47E-08,-0.07962329,126.455,33.70144,0,0
60882.8,35.44461,32.13193,7.873731,91.60807,-0.03127553,1.47E-08,-0.06607214,125.3757,33.70144,1,0
60882.9,-28.22814,32.13193,7.873731,91.60807,-0.03127553,1.47E-08,-0.06607214,123.2172,33.70144,0,0
60883,-55.0006,29.38878,2.567897,93.03082,-0.01236875,1.47E-08,-0.07962329,123.2172,33.70144,0,0
60883.1,-39.09244,29.38878,2.567897,93.03082,-0.01236875,1.47E-08,-0.07962329,123.2172,33.70144,0,0
60883.2,-13.78413,30.9853,-0.3871125,90.33363,0.006581918,1.47E-08,-0.09317443,123.2172,33.70144,0,0
60883.3,41.35132,30.9853,-0.3871125,90.33363,0.006581918,1.47E-08,-0.09317443,123.0633,33.70144,1,0
60883.4,-3.912513,30.9661,-0.1069908,91.09171,0.008052324,1.47E-08,-0.09317443,122.7554,33.70144,0,0
60883.5,-20.36041,30.9661,-0.1069908,91.09171,0.008052324,1.47E-08,-0.09317443,122.7554,33.70144,0,1
60883.6,-0.3273805,31.55313,-0.5738603,88.50439,0.01105897,1.47E-08,-0.1609301,122.7554,33.9305,0,0
60883.7,9.967929,31.55313,-0.5738603,88.50439,0.01105897,1.47E-08,-0.1609301,122.7554,34.38861,0,0
60883.8,49.39586,32.9686,0.3653713,86.68064,0.005166379,1.47E-08,-0.1880324,122.4967,34.38861,1,0
60883.9,32.94307,32.9686,0.3653713,86.68064,0.005166379,1.47E-08,-0.1880324,121.9794,34.38861,0,0
60884,21.4134,33.57483,0.409312,87.21348,-0.000155611,1.47E-08,-0.147379,121.9794,34.38861,0,0
60884.1,-11.37,33.57483,0.409312,87.21348,-0.000155611,1.47E-08,-0.147379,121.9794,34.38861,0,0
60884.2,-37.7747,34.0878,-1.957991,85.91159,-0.008242841,1.47E-08,-0.09317443,121.9794,34.38861,0,0
60884.3,11.07277,34.0878,-1.957991,85.91159,-0.008242841,1.47E-08,-0.09317443,123.032,34.38861,1,0
60884.4,-74.63226,35.2509,-2.21065,87.15854,-0.01978662,1.47E-08,-0.07962329,125.1372,34.38861,0,0
60884.5,-88.1549,35.2509,-2.21065,87.15854,-0.01978662,1.47E-08,-0.07962329,125.1372,34.38861,0,0
60884.6,-52.2719,35.96412,-2.946656,87.24095,-0.01485967,1.47E-08,-0.1067256,125.1372,34.38861,0,0
